#header: N=2	 eta=0.200000	TIME_MAX=30	TERM_TIME=20000	TEMP=0.638720
1.000000e-01	3.958928e-03
2.000000e-01	9.470505e-03
3.000000e-01	1.538699e-02
4.000000e-01	2.147777e-02
5.000000e-01	2.764048e-02
6.000000e-01	3.384262e-02
7.000000e-01	4.003589e-02
8.000000e-01	4.622044e-02
9.000000e-01	5.238799e-02
1.000000e+00	5.851129e-02
1.100000e+00	6.450033e-02
1.200000e+00	7.029307e-02
1.300000e+00	7.593736e-02
1.400000e+00	8.133151e-02
1.500000e+00	8.644255e-02
1.600000e+00	9.129423e-02
1.700000e+00	9.589017e-02
1.800000e+00	1.002664e-01
1.900000e+00	1.043411e-01
2.000000e+00	1.082123e-01
2.100000e+00	1.118513e-01
2.200000e+00	1.152628e-01
2.300000e+00	1.184841e-01
2.400000e+00	1.215861e-01
2.500000e+00	1.245481e-01
2.600000e+00	1.274287e-01
2.700000e+00	1.301816e-01
2.800000e+00	1.327687e-01
2.900000e+00	1.351938e-01
3.000000e+00	1.374390e-01
3.100000e+00	1.395477e-01
3.200000e+00	1.413738e-01
3.300000e+00	1.431432e-01
3.400000e+00	1.447549e-01
3.500000e+00	1.461672e-01
3.600000e+00	1.475040e-01
3.700000e+00	1.487345e-01
3.800000e+00	1.498714e-01
3.900000e+00	1.508504e-01
4.000000e+00	1.517890e-01
4.100000e+00	1.526928e-01
4.200000e+00	1.535222e-01
4.300000e+00	1.543740e-01
4.400000e+00	1.550920e-01
4.500000e+00	1.557699e-01
4.600000e+00	1.564818e-01
4.700000e+00	1.572753e-01
4.800000e+00	1.580621e-01
4.900000e+00	1.587943e-01
5.000000e+00	1.594298e-01
5.100000e+00	1.600641e-01
5.200000e+00	1.606420e-01
5.300000e+00	1.610690e-01
5.400000e+00	1.614314e-01
5.500000e+00	1.617290e-01
5.600000e+00	1.619741e-01
5.700000e+00	1.621966e-01
5.800000e+00	1.624020e-01
5.900000e+00	1.625866e-01
6.000000e+00	1.627770e-01
6.100000e+00	1.630028e-01
6.200000e+00	1.631491e-01
6.300000e+00	1.633703e-01
6.400000e+00	1.637144e-01
6.500000e+00	1.640258e-01
6.600000e+00	1.642711e-01
6.700000e+00	1.645532e-01
6.800000e+00	1.647644e-01
6.900000e+00	1.650857e-01
7.000000e+00	1.653498e-01
7.100000e+00	1.655277e-01
7.200000e+00	1.656562e-01
7.300000e+00	1.657819e-01
7.400000e+00	1.657411e-01
7.500000e+00	1.657150e-01
7.600000e+00	1.658107e-01
7.700000e+00	1.658838e-01
7.800000e+00	1.659288e-01
7.900000e+00	1.660614e-01
8.000000e+00	1.661445e-01
8.100000e+00	1.662712e-01
8.200000e+00	1.664085e-01
8.300000e+00	1.664051e-01
8.400000e+00	1.664669e-01
8.500000e+00	1.666735e-01
8.600000e+00	1.668197e-01
8.700000e+00	1.669561e-01
8.800000e+00	1.670187e-01
8.900000e+00	1.671083e-01
9.000000e+00	1.670761e-01
9.100000e+00	1.670291e-01
9.200000e+00	1.669141e-01
9.300000e+00	1.667061e-01
9.400000e+00	1.666118e-01
9.500000e+00	1.665780e-01
9.600000e+00	1.665641e-01
9.700000e+00	1.666317e-01
9.800000e+00	1.667157e-01
9.900000e+00	1.667494e-01
1.000000e+01	1.666307e-01
1.010000e+01	1.665659e-01
1.020000e+01	1.664968e-01
1.030000e+01	1.665894e-01
1.040000e+01	1.665137e-01
1.050000e+01	1.666010e-01
1.060000e+01	1.667149e-01
1.070000e+01	1.668305e-01
1.080000e+01	1.669327e-01
1.090000e+01	1.670615e-01
1.100000e+01	1.672139e-01
1.110000e+01	1.672380e-01
1.120000e+01	1.672237e-01
1.130000e+01	1.672192e-01
1.140000e+01	1.671874e-01
1.150000e+01	1.671256e-01
1.160000e+01	1.670540e-01
1.170000e+01	1.669369e-01
1.180000e+01	1.668218e-01
1.190000e+01	1.668110e-01
1.200000e+01	1.668592e-01
1.210000e+01	1.669124e-01
1.220000e+01	1.669511e-01
1.230000e+01	1.671134e-01
1.240000e+01	1.671855e-01
1.250000e+01	1.673142e-01
1.260000e+01	1.675092e-01
1.270000e+01	1.676673e-01
1.280000e+01	1.676660e-01
1.290000e+01	1.676397e-01
1.300000e+01	1.676523e-01
1.310000e+01	1.676456e-01
1.320000e+01	1.675497e-01
1.330000e+01	1.673399e-01
1.340000e+01	1.672246e-01
1.350000e+01	1.672192e-01
1.360000e+01	1.672477e-01
1.370000e+01	1.673618e-01
1.380000e+01	1.674040e-01
1.390000e+01	1.673563e-01
1.400000e+01	1.673044e-01
1.410000e+01	1.672014e-01
1.420000e+01	1.671293e-01
1.430000e+01	1.670475e-01
1.440000e+01	1.668882e-01
1.450000e+01	1.665863e-01
1.460000e+01	1.664401e-01
1.470000e+01	1.663395e-01
1.480000e+01	1.663163e-01
1.490000e+01	1.662859e-01
1.500000e+01	1.663500e-01
1.510000e+01	1.665645e-01
1.520000e+01	1.666635e-01
1.530000e+01	1.668423e-01
1.540000e+01	1.670984e-01
1.550000e+01	1.673207e-01
1.560000e+01	1.675049e-01
1.570000e+01	1.676527e-01
1.580000e+01	1.677558e-01
1.590000e+01	1.679246e-01
1.600000e+01	1.680079e-01
1.610000e+01	1.680406e-01
1.620000e+01	1.680966e-01
1.630000e+01	1.682474e-01
1.640000e+01	1.684254e-01
1.650000e+01	1.685290e-01
1.660000e+01	1.686048e-01
1.670000e+01	1.686886e-01
1.680000e+01	1.687195e-01
1.690000e+01	1.686892e-01
1.700000e+01	1.685733e-01
1.710000e+01	1.683262e-01
1.720000e+01	1.680372e-01
1.730000e+01	1.676903e-01
1.740000e+01	1.673879e-01
1.750000e+01	1.671176e-01
1.760000e+01	1.669375e-01
1.770000e+01	1.667206e-01
1.780000e+01	1.664676e-01
1.790000e+01	1.662225e-01
1.800000e+01	1.660225e-01
1.810000e+01	1.658612e-01
1.820000e+01	1.658048e-01
1.830000e+01	1.658133e-01
1.840000e+01	1.657942e-01
1.850000e+01	1.657847e-01
1.860000e+01	1.658462e-01
1.870000e+01	1.657974e-01
1.880000e+01	1.659676e-01
1.890000e+01	1.661656e-01
1.900000e+01	1.663161e-01
1.910000e+01	1.662778e-01
1.920000e+01	1.662135e-01
1.930000e+01	1.661350e-01
1.940000e+01	1.660390e-01
1.950000e+01	1.659624e-01
1.960000e+01	1.660023e-01
1.970000e+01	1.661733e-01
1.980000e+01	1.663639e-01
1.990000e+01	1.665705e-01
2.000000e+01	1.668508e-01
2.010000e+01	1.671405e-01
2.020000e+01	1.671978e-01
2.030000e+01	1.671970e-01
2.040000e+01	1.674850e-01
2.050000e+01	1.676807e-01
2.060000e+01	1.679394e-01
2.070000e+01	1.681541e-01
2.080000e+01	1.683468e-01
2.090000e+01	1.685433e-01
2.100000e+01	1.686026e-01
2.110000e+01	1.685880e-01
2.120000e+01	1.685406e-01
2.130000e+01	1.684588e-01
2.140000e+01	1.686025e-01
2.150000e+01	1.685774e-01
2.160000e+01	1.687781e-01
2.170000e+01	1.689421e-01
2.180000e+01	1.690428e-01
2.190000e+01	1.692122e-01
2.200000e+01	1.694891e-01
2.210000e+01	1.697677e-01
2.220000e+01	1.699578e-01
2.230000e+01	1.700701e-01
2.240000e+01	1.700523e-01
2.250000e+01	1.701509e-01
2.260000e+01	1.701288e-01
2.270000e+01	1.701158e-01
2.280000e+01	1.702397e-01
2.290000e+01	1.703005e-01
2.300000e+01	1.701780e-01
2.310000e+01	1.700444e-01
2.320000e+01	1.697036e-01
2.330000e+01	1.692579e-01
2.340000e+01	1.686626e-01
2.350000e+01	1.681616e-01
2.360000e+01	1.676444e-01
2.370000e+01	1.671416e-01
2.380000e+01	1.664219e-01
2.390000e+01	1.658101e-01
2.400000e+01	1.653373e-01
2.410000e+01	1.648140e-01
2.420000e+01	1.643516e-01
2.430000e+01	1.640425e-01
2.440000e+01	1.639204e-01
2.450000e+01	1.638717e-01
2.460000e+01	1.639282e-01
2.470000e+01	1.637206e-01
2.480000e+01	1.635685e-01
2.490000e+01	1.631868e-01
2.500000e+01	1.629741e-01
2.510000e+01	1.626136e-01
2.520000e+01	1.620572e-01
2.530000e+01	1.617882e-01
2.540000e+01	1.615219e-01
2.550000e+01	1.610148e-01
2.560000e+01	1.604475e-01
2.570000e+01	1.597634e-01
2.580000e+01	1.591987e-01
2.590000e+01	1.587463e-01
2.600000e+01	1.586831e-01
2.610000e+01	1.588446e-01
2.620000e+01	1.588777e-01
2.630000e+01	1.586051e-01
2.640000e+01	1.582745e-01
2.650000e+01	1.578918e-01
2.660000e+01	1.575156e-01
2.670000e+01	1.571750e-01
2.680000e+01	1.567030e-01
2.690000e+01	1.561727e-01
2.700000e+01	1.557487e-01
2.710000e+01	1.556145e-01
2.720000e+01	1.553187e-01
2.730000e+01	1.550519e-01
2.740000e+01	1.550616e-01
2.750000e+01	1.549970e-01
2.760000e+01	1.549533e-01
2.770000e+01	1.551445e-01
2.780000e+01	1.556148e-01
2.790000e+01	1.561933e-01
2.800000e+01	1.568009e-01
2.810000e+01	1.571963e-01
2.820000e+01	1.575710e-01
2.830000e+01	1.581125e-01
2.840000e+01	1.585921e-01
2.850000e+01	1.590126e-01
2.860000e+01	1.600503e-01
2.870000e+01	1.615400e-01
2.880000e+01	1.625010e-01
2.890000e+01	1.635416e-01
2.900000e+01	1.641236e-01
2.910000e+01	1.645984e-01
2.920000e+01	1.644873e-01
2.930000e+01	1.652638e-01
2.940000e+01	1.659355e-01
2.950000e+01	1.674052e-01
2.960000e+01	1.679973e-01
2.970000e+01	1.685309e-01
2.980000e+01	1.671819e-01
