#header: N=2	 eta=0.210000	TIME_MAX=30	TERM_TIME=20000	TEMP=0.633022
1.000000e-01	3.853965e-03
2.000000e-01	9.198003e-03
3.000000e-01	1.490938e-02
4.000000e-01	2.077600e-02
5.000000e-01	2.675409e-02
6.000000e-01	3.283150e-02
7.000000e-01	3.896991e-02
8.000000e-01	4.511989e-02
9.000000e-01	5.123363e-02
1.000000e+00	5.725125e-02
1.100000e+00	6.315417e-02
1.200000e+00	6.893368e-02
1.300000e+00	7.453458e-02
1.400000e+00	7.989962e-02
1.500000e+00	8.496410e-02
1.600000e+00	8.983820e-02
1.700000e+00	9.446700e-02
1.800000e+00	9.880869e-02
1.900000e+00	1.028197e-01
2.000000e+00	1.065800e-01
2.100000e+00	1.101416e-01
2.200000e+00	1.135118e-01
2.300000e+00	1.167170e-01
2.400000e+00	1.196354e-01
2.500000e+00	1.225285e-01
2.600000e+00	1.252877e-01
2.700000e+00	1.277611e-01
2.800000e+00	1.301482e-01
2.900000e+00	1.324248e-01
3.000000e+00	1.345998e-01
3.100000e+00	1.366158e-01
3.200000e+00	1.385201e-01
3.300000e+00	1.401824e-01
3.400000e+00	1.418070e-01
3.500000e+00	1.433986e-01
3.600000e+00	1.449566e-01
3.700000e+00	1.463285e-01
3.800000e+00	1.475944e-01
3.900000e+00	1.488112e-01
4.000000e+00	1.499677e-01
4.100000e+00	1.510402e-01
4.200000e+00	1.520628e-01
4.300000e+00	1.529818e-01
4.400000e+00	1.538830e-01
4.500000e+00	1.546843e-01
4.600000e+00	1.552541e-01
4.700000e+00	1.557311e-01
4.800000e+00	1.561944e-01
4.900000e+00	1.566651e-01
5.000000e+00	1.570775e-01
5.100000e+00	1.573768e-01
5.200000e+00	1.576954e-01
5.300000e+00	1.579803e-01
5.400000e+00	1.581629e-01
5.500000e+00	1.582967e-01
5.600000e+00	1.583808e-01
5.700000e+00	1.585035e-01
5.800000e+00	1.586548e-01
5.900000e+00	1.589382e-01
6.000000e+00	1.592789e-01
6.100000e+00	1.595539e-01
6.200000e+00	1.597472e-01
6.300000e+00	1.598429e-01
6.400000e+00	1.600076e-01
6.500000e+00	1.602120e-01
6.600000e+00	1.603440e-01
6.700000e+00	1.604658e-01
6.800000e+00	1.605773e-01
6.900000e+00	1.606007e-01
7.000000e+00	1.606075e-01
7.100000e+00	1.606130e-01
7.200000e+00	1.607121e-01
7.300000e+00	1.608624e-01
7.400000e+00	1.610935e-01
7.500000e+00	1.611822e-01
7.600000e+00	1.611630e-01
7.700000e+00	1.611030e-01
7.800000e+00	1.610726e-01
7.900000e+00	1.611517e-01
8.000000e+00	1.612590e-01
8.100000e+00	1.613932e-01
8.200000e+00	1.615334e-01
8.300000e+00	1.615856e-01
8.400000e+00	1.615764e-01
8.500000e+00	1.615344e-01
8.600000e+00	1.615485e-01
8.700000e+00	1.615980e-01
8.800000e+00	1.616731e-01
8.900000e+00	1.619149e-01
9.000000e+00	1.621561e-01
9.100000e+00	1.624184e-01
9.200000e+00	1.625731e-01
9.300000e+00	1.626673e-01
9.400000e+00	1.628215e-01
9.500000e+00	1.629961e-01
9.600000e+00	1.631625e-01
9.700000e+00	1.633564e-01
9.800000e+00	1.635785e-01
9.900000e+00	1.637408e-01
1.000000e+01	1.639173e-01
1.010000e+01	1.640325e-01
1.020000e+01	1.641271e-01
1.030000e+01	1.642766e-01
1.040000e+01	1.644109e-01
1.050000e+01	1.645694e-01
1.060000e+01	1.648126e-01
1.070000e+01	1.649602e-01
1.080000e+01	1.649657e-01
1.090000e+01	1.649704e-01
1.100000e+01	1.650002e-01
1.110000e+01	1.649870e-01
1.120000e+01	1.650332e-01
1.130000e+01	1.651761e-01
1.140000e+01	1.653183e-01
1.150000e+01	1.652873e-01
1.160000e+01	1.652938e-01
1.170000e+01	1.653300e-01
1.180000e+01	1.654221e-01
1.190000e+01	1.655498e-01
1.200000e+01	1.657092e-01
1.210000e+01	1.658860e-01
1.220000e+01	1.661026e-01
1.230000e+01	1.662359e-01
1.240000e+01	1.664487e-01
1.250000e+01	1.666428e-01
1.260000e+01	1.667989e-01
1.270000e+01	1.670399e-01
1.280000e+01	1.673033e-01
1.290000e+01	1.675409e-01
1.300000e+01	1.678508e-01
1.310000e+01	1.682488e-01
1.320000e+01	1.685497e-01
1.330000e+01	1.687799e-01
1.340000e+01	1.689139e-01
1.350000e+01	1.690927e-01
1.360000e+01	1.693006e-01
1.370000e+01	1.694088e-01
1.380000e+01	1.695392e-01
1.390000e+01	1.695171e-01
1.400000e+01	1.694554e-01
1.410000e+01	1.693860e-01
1.420000e+01	1.693438e-01
1.430000e+01	1.692313e-01
1.440000e+01	1.692112e-01
1.450000e+01	1.692073e-01
1.460000e+01	1.692996e-01
1.470000e+01	1.693423e-01
1.480000e+01	1.693426e-01
1.490000e+01	1.692689e-01
1.500000e+01	1.692174e-01
1.510000e+01	1.690920e-01
1.520000e+01	1.688195e-01
1.530000e+01	1.685700e-01
1.540000e+01	1.684390e-01
1.550000e+01	1.682989e-01
1.560000e+01	1.681366e-01
1.570000e+01	1.680931e-01
1.580000e+01	1.679543e-01
1.590000e+01	1.678831e-01
1.600000e+01	1.679177e-01
1.610000e+01	1.678035e-01
1.620000e+01	1.676408e-01
1.630000e+01	1.674994e-01
1.640000e+01	1.672997e-01
1.650000e+01	1.670051e-01
1.660000e+01	1.668964e-01
1.670000e+01	1.667790e-01
1.680000e+01	1.665945e-01
1.690000e+01	1.664959e-01
1.700000e+01	1.664692e-01
1.710000e+01	1.666007e-01
1.720000e+01	1.666686e-01
1.730000e+01	1.667454e-01
1.740000e+01	1.669282e-01
1.750000e+01	1.671537e-01
1.760000e+01	1.672528e-01
1.770000e+01	1.673667e-01
1.780000e+01	1.674879e-01
1.790000e+01	1.674776e-01
1.800000e+01	1.673151e-01
1.810000e+01	1.671840e-01
1.820000e+01	1.670757e-01
1.830000e+01	1.669877e-01
1.840000e+01	1.668717e-01
1.850000e+01	1.667736e-01
1.860000e+01	1.667194e-01
1.870000e+01	1.666810e-01
1.880000e+01	1.665280e-01
1.890000e+01	1.664832e-01
1.900000e+01	1.664522e-01
1.910000e+01	1.664467e-01
1.920000e+01	1.663281e-01
1.930000e+01	1.661614e-01
1.940000e+01	1.659696e-01
1.950000e+01	1.656729e-01
1.960000e+01	1.654882e-01
1.970000e+01	1.654091e-01
1.980000e+01	1.653322e-01
1.990000e+01	1.652088e-01
2.000000e+01	1.652312e-01
2.010000e+01	1.653406e-01
2.020000e+01	1.654139e-01
2.030000e+01	1.654323e-01
2.040000e+01	1.654951e-01
2.050000e+01	1.654578e-01
2.060000e+01	1.654148e-01
2.070000e+01	1.654990e-01
2.080000e+01	1.654023e-01
2.090000e+01	1.652106e-01
2.100000e+01	1.650498e-01
2.110000e+01	1.650698e-01
2.120000e+01	1.652471e-01
2.130000e+01	1.652752e-01
2.140000e+01	1.652340e-01
2.150000e+01	1.650662e-01
2.160000e+01	1.649110e-01
2.170000e+01	1.646422e-01
2.180000e+01	1.646668e-01
2.190000e+01	1.647699e-01
2.200000e+01	1.648240e-01
2.210000e+01	1.649331e-01
2.220000e+01	1.650052e-01
2.230000e+01	1.649527e-01
2.240000e+01	1.648744e-01
2.250000e+01	1.649123e-01
2.260000e+01	1.651202e-01
2.270000e+01	1.653182e-01
2.280000e+01	1.655454e-01
2.290000e+01	1.658260e-01
2.300000e+01	1.660253e-01
2.310000e+01	1.661124e-01
2.320000e+01	1.663549e-01
2.330000e+01	1.666622e-01
2.340000e+01	1.670742e-01
2.350000e+01	1.672370e-01
2.360000e+01	1.672253e-01
2.370000e+01	1.671372e-01
2.380000e+01	1.672247e-01
2.390000e+01	1.674026e-01
2.400000e+01	1.676076e-01
2.410000e+01	1.679401e-01
2.420000e+01	1.681348e-01
2.430000e+01	1.681407e-01
2.440000e+01	1.681314e-01
2.450000e+01	1.678393e-01
2.460000e+01	1.674344e-01
2.470000e+01	1.671723e-01
2.480000e+01	1.671113e-01
2.490000e+01	1.672092e-01
2.500000e+01	1.674070e-01
2.510000e+01	1.675248e-01
2.520000e+01	1.675165e-01
2.530000e+01	1.675653e-01
2.540000e+01	1.677741e-01
2.550000e+01	1.679229e-01
2.560000e+01	1.681861e-01
2.570000e+01	1.682990e-01
2.580000e+01	1.682284e-01
2.590000e+01	1.681185e-01
2.600000e+01	1.682382e-01
2.610000e+01	1.686538e-01
2.620000e+01	1.689298e-01
2.630000e+01	1.693083e-01
2.640000e+01	1.696153e-01
2.650000e+01	1.698355e-01
2.660000e+01	1.698872e-01
2.670000e+01	1.701507e-01
2.680000e+01	1.704916e-01
2.690000e+01	1.710538e-01
2.700000e+01	1.712298e-01
2.710000e+01	1.717839e-01
2.720000e+01	1.722264e-01
2.730000e+01	1.725381e-01
2.740000e+01	1.726190e-01
2.750000e+01	1.728680e-01
2.760000e+01	1.728043e-01
2.770000e+01	1.728051e-01
2.780000e+01	1.726940e-01
2.790000e+01	1.730173e-01
2.800000e+01	1.729236e-01
2.810000e+01	1.727415e-01
2.820000e+01	1.729463e-01
2.830000e+01	1.734462e-01
2.840000e+01	1.738627e-01
2.850000e+01	1.742302e-01
2.860000e+01	1.744303e-01
2.870000e+01	1.738558e-01
2.880000e+01	1.735068e-01
2.890000e+01	1.732883e-01
2.900000e+01	1.731442e-01
2.910000e+01	1.729651e-01
2.920000e+01	1.717957e-01
2.930000e+01	1.705777e-01
2.940000e+01	1.703682e-01
2.950000e+01	1.695678e-01
2.960000e+01	1.679380e-01
2.970000e+01	1.676086e-01
2.980000e+01	1.675734e-01
