#header: N=2	 eta=0.215000	TIME_MAX=30	TERM_TIME=20000	TEMP=0.690190
1.000000e-01	4.047438e-03
2.000000e-01	9.635484e-03
3.000000e-01	1.564069e-02
4.000000e-01	2.180417e-02
5.000000e-01	2.804509e-02
6.000000e-01	3.437589e-02
7.000000e-01	4.080567e-02
8.000000e-01	4.726659e-02
9.000000e-01	5.365841e-02
1.000000e+00	5.987335e-02
1.100000e+00	6.592899e-02
1.200000e+00	7.180881e-02
1.300000e+00	7.744649e-02
1.400000e+00	8.281033e-02
1.500000e+00	8.794072e-02
1.600000e+00	9.281231e-02
1.700000e+00	9.743735e-02
1.800000e+00	1.017574e-01
1.900000e+00	1.058029e-01
2.000000e+00	1.096184e-01
2.100000e+00	1.132480e-01
2.200000e+00	1.167376e-01
2.300000e+00	1.200577e-01
2.400000e+00	1.231940e-01
2.500000e+00	1.260586e-01
2.600000e+00	1.287928e-01
2.700000e+00	1.313923e-01
2.800000e+00	1.338880e-01
2.900000e+00	1.361961e-01
3.000000e+00	1.382691e-01
3.100000e+00	1.401658e-01
3.200000e+00	1.419734e-01
3.300000e+00	1.436369e-01
3.400000e+00	1.452056e-01
3.500000e+00	1.466183e-01
3.600000e+00	1.480031e-01
3.700000e+00	1.492852e-01
3.800000e+00	1.505462e-01
3.900000e+00	1.517194e-01
4.000000e+00	1.528070e-01
4.100000e+00	1.538496e-01
4.200000e+00	1.548084e-01
4.300000e+00	1.558271e-01
4.400000e+00	1.566997e-01
4.500000e+00	1.574451e-01
4.600000e+00	1.579782e-01
4.700000e+00	1.583985e-01
4.800000e+00	1.588316e-01
4.900000e+00	1.591490e-01
5.000000e+00	1.593786e-01
5.100000e+00	1.595389e-01
5.200000e+00	1.597346e-01
5.300000e+00	1.599594e-01
5.400000e+00	1.601724e-01
5.500000e+00	1.604387e-01
5.600000e+00	1.608148e-01
5.700000e+00	1.612011e-01
5.800000e+00	1.614960e-01
5.900000e+00	1.616531e-01
6.000000e+00	1.618258e-01
6.100000e+00	1.620089e-01
6.200000e+00	1.622321e-01
6.300000e+00	1.623689e-01
6.400000e+00	1.625622e-01
6.500000e+00	1.627105e-01
6.600000e+00	1.628492e-01
6.700000e+00	1.629292e-01
6.800000e+00	1.631541e-01
6.900000e+00	1.634047e-01
7.000000e+00	1.636361e-01
7.100000e+00	1.638722e-01
7.200000e+00	1.640519e-01
7.300000e+00	1.641841e-01
7.400000e+00	1.643108e-01
7.500000e+00	1.644822e-01
7.600000e+00	1.646013e-01
7.700000e+00	1.647463e-01
7.800000e+00	1.648799e-01
7.900000e+00	1.650862e-01
8.000000e+00	1.652888e-01
8.100000e+00	1.654191e-01
8.200000e+00	1.654717e-01
8.300000e+00	1.654581e-01
8.400000e+00	1.654887e-01
8.500000e+00	1.654967e-01
8.600000e+00	1.655017e-01
8.700000e+00	1.654395e-01
8.800000e+00	1.654790e-01
8.900000e+00	1.654817e-01
9.000000e+00	1.654690e-01
9.100000e+00	1.654915e-01
9.200000e+00	1.653962e-01
9.300000e+00	1.654432e-01
9.400000e+00	1.654608e-01
9.500000e+00	1.655389e-01
9.600000e+00	1.655391e-01
9.700000e+00	1.655538e-01
9.800000e+00	1.654810e-01
9.900000e+00	1.652581e-01
1.000000e+01	1.650323e-01
1.010000e+01	1.648648e-01
1.020000e+01	1.645889e-01
1.030000e+01	1.642749e-01
1.040000e+01	1.639889e-01
1.050000e+01	1.636747e-01
1.060000e+01	1.634710e-01
1.070000e+01	1.632727e-01
1.080000e+01	1.631066e-01
1.090000e+01	1.629936e-01
1.100000e+01	1.629251e-01
1.110000e+01	1.628269e-01
1.120000e+01	1.626567e-01
1.130000e+01	1.624783e-01
1.140000e+01	1.623291e-01
1.150000e+01	1.622501e-01
1.160000e+01	1.621168e-01
1.170000e+01	1.618872e-01
1.180000e+01	1.618162e-01
1.190000e+01	1.617983e-01
1.200000e+01	1.617470e-01
1.210000e+01	1.617463e-01
1.220000e+01	1.616490e-01
1.230000e+01	1.615196e-01
1.240000e+01	1.615710e-01
1.250000e+01	1.618421e-01
1.260000e+01	1.619795e-01
1.270000e+01	1.620772e-01
1.280000e+01	1.622012e-01
1.290000e+01	1.623778e-01
1.300000e+01	1.625822e-01
1.310000e+01	1.627733e-01
1.320000e+01	1.630555e-01
1.330000e+01	1.632892e-01
1.340000e+01	1.634866e-01
1.350000e+01	1.637972e-01
1.360000e+01	1.640849e-01
1.370000e+01	1.642269e-01
1.380000e+01	1.645144e-01
1.390000e+01	1.647263e-01
1.400000e+01	1.648192e-01
1.410000e+01	1.648814e-01
1.420000e+01	1.649742e-01
1.430000e+01	1.650416e-01
1.440000e+01	1.649793e-01
1.450000e+01	1.649448e-01
1.460000e+01	1.648838e-01
1.470000e+01	1.646561e-01
1.480000e+01	1.643751e-01
1.490000e+01	1.641908e-01
1.500000e+01	1.639917e-01
1.510000e+01	1.637836e-01
1.520000e+01	1.636026e-01
1.530000e+01	1.634774e-01
1.540000e+01	1.634500e-01
1.550000e+01	1.634520e-01
1.560000e+01	1.634430e-01
1.570000e+01	1.635385e-01
1.580000e+01	1.637258e-01
1.590000e+01	1.637139e-01
1.600000e+01	1.636986e-01
1.610000e+01	1.637103e-01
1.620000e+01	1.636513e-01
1.630000e+01	1.635094e-01
1.640000e+01	1.634704e-01
1.650000e+01	1.636514e-01
1.660000e+01	1.637355e-01
1.670000e+01	1.638145e-01
1.680000e+01	1.640695e-01
1.690000e+01	1.644010e-01
1.700000e+01	1.647380e-01
1.710000e+01	1.651333e-01
1.720000e+01	1.653374e-01
1.730000e+01	1.655910e-01
1.740000e+01	1.658661e-01
1.750000e+01	1.661034e-01
1.760000e+01	1.661380e-01
1.770000e+01	1.660564e-01
1.780000e+01	1.659167e-01
1.790000e+01	1.658642e-01
1.800000e+01	1.656649e-01
1.810000e+01	1.653911e-01
1.820000e+01	1.652835e-01
1.830000e+01	1.651806e-01
1.840000e+01	1.652378e-01
1.850000e+01	1.652896e-01
1.860000e+01	1.655263e-01
1.870000e+01	1.657526e-01
1.880000e+01	1.659467e-01
1.890000e+01	1.661719e-01
1.900000e+01	1.662805e-01
1.910000e+01	1.663202e-01
1.920000e+01	1.663490e-01
1.930000e+01	1.662908e-01
1.940000e+01	1.663002e-01
1.950000e+01	1.664410e-01
1.960000e+01	1.665677e-01
1.970000e+01	1.667182e-01
1.980000e+01	1.669186e-01
1.990000e+01	1.671342e-01
2.000000e+01	1.672886e-01
2.010000e+01	1.674011e-01
2.020000e+01	1.675174e-01
2.030000e+01	1.675456e-01
2.040000e+01	1.674597e-01
2.050000e+01	1.674182e-01
2.060000e+01	1.673182e-01
2.070000e+01	1.673158e-01
2.080000e+01	1.673534e-01
2.090000e+01	1.672914e-01
2.100000e+01	1.672325e-01
2.110000e+01	1.672007e-01
2.120000e+01	1.673118e-01
2.130000e+01	1.673985e-01
2.140000e+01	1.673779e-01
2.150000e+01	1.673856e-01
2.160000e+01	1.674554e-01
2.170000e+01	1.672423e-01
2.180000e+01	1.669841e-01
2.190000e+01	1.667426e-01
2.200000e+01	1.664646e-01
2.210000e+01	1.660753e-01
2.220000e+01	1.658060e-01
2.230000e+01	1.656281e-01
2.240000e+01	1.655472e-01
2.250000e+01	1.654831e-01
2.260000e+01	1.655886e-01
2.270000e+01	1.656647e-01
2.280000e+01	1.656638e-01
2.290000e+01	1.656914e-01
2.300000e+01	1.660477e-01
2.310000e+01	1.662244e-01
2.320000e+01	1.666535e-01
2.330000e+01	1.669691e-01
2.340000e+01	1.672509e-01
2.350000e+01	1.677124e-01
2.360000e+01	1.679377e-01
2.370000e+01	1.681185e-01
2.380000e+01	1.685151e-01
2.390000e+01	1.688086e-01
2.400000e+01	1.689708e-01
2.410000e+01	1.689344e-01
2.420000e+01	1.689200e-01
2.430000e+01	1.689683e-01
2.440000e+01	1.691106e-01
2.450000e+01	1.690585e-01
2.460000e+01	1.688659e-01
2.470000e+01	1.687477e-01
2.480000e+01	1.687908e-01
2.490000e+01	1.687703e-01
2.500000e+01	1.688252e-01
2.510000e+01	1.689231e-01
2.520000e+01	1.691545e-01
2.530000e+01	1.695305e-01
2.540000e+01	1.697228e-01
2.550000e+01	1.700428e-01
2.560000e+01	1.704544e-01
2.570000e+01	1.704437e-01
2.580000e+01	1.705644e-01
2.590000e+01	1.707137e-01
2.600000e+01	1.709869e-01
2.610000e+01	1.711443e-01
2.620000e+01	1.709481e-01
2.630000e+01	1.707555e-01
2.640000e+01	1.703963e-01
2.650000e+01	1.701755e-01
2.660000e+01	1.703555e-01
2.670000e+01	1.703266e-01
2.680000e+01	1.700959e-01
2.690000e+01	1.699237e-01
2.700000e+01	1.699774e-01
2.710000e+01	1.696828e-01
2.720000e+01	1.695789e-01
2.730000e+01	1.696500e-01
2.740000e+01	1.697867e-01
2.750000e+01	1.699155e-01
2.760000e+01	1.703332e-01
2.770000e+01	1.708990e-01
2.780000e+01	1.715869e-01
2.790000e+01	1.721286e-01
2.800000e+01	1.726601e-01
2.810000e+01	1.733717e-01
2.820000e+01	1.737612e-01
2.830000e+01	1.745088e-01
2.840000e+01	1.749704e-01
2.850000e+01	1.754209e-01
2.860000e+01	1.762526e-01
2.870000e+01	1.769738e-01
2.880000e+01	1.774624e-01
2.890000e+01	1.775922e-01
2.900000e+01	1.774259e-01
2.910000e+01	1.772386e-01
2.920000e+01	1.772623e-01
2.930000e+01	1.777264e-01
2.940000e+01	1.781001e-01
2.950000e+01	1.784158e-01
2.960000e+01	1.762643e-01
2.970000e+01	1.739004e-01
2.980000e+01	1.708161e-01
