#header: N=2	 eta=0.220000	TIME_MAX=30	TERM_TIME=20000	TEMP=0.650043
1.000000e-01	3.841643e-03
2.000000e-01	9.081776e-03
3.000000e-01	1.470533e-02
4.000000e-01	2.051169e-02
5.000000e-01	2.643778e-02
6.000000e-01	3.245783e-02
7.000000e-01	3.853354e-02
8.000000e-01	4.462190e-02
9.000000e-01	5.065117e-02
1.000000e+00	5.658233e-02
1.100000e+00	6.241582e-02
1.200000e+00	6.808291e-02
1.300000e+00	7.354934e-02
1.400000e+00	7.881852e-02
1.500000e+00	8.385829e-02
1.600000e+00	8.871114e-02
1.700000e+00	9.333669e-02
1.800000e+00	9.776697e-02
1.900000e+00	1.019030e-01
2.000000e+00	1.057790e-01
2.100000e+00	1.094989e-01
2.200000e+00	1.130458e-01
2.300000e+00	1.163895e-01
2.400000e+00	1.194609e-01
2.500000e+00	1.223212e-01
2.600000e+00	1.249400e-01
2.700000e+00	1.273678e-01
2.800000e+00	1.296305e-01
2.900000e+00	1.317351e-01
3.000000e+00	1.336379e-01
3.100000e+00	1.354430e-01
3.200000e+00	1.371827e-01
3.300000e+00	1.388609e-01
3.400000e+00	1.404406e-01
3.500000e+00	1.419287e-01
3.600000e+00	1.433832e-01
3.700000e+00	1.447603e-01
3.800000e+00	1.461328e-01
3.900000e+00	1.474724e-01
4.000000e+00	1.487322e-01
4.100000e+00	1.498370e-01
4.200000e+00	1.509285e-01
4.300000e+00	1.519001e-01
4.400000e+00	1.528047e-01
4.500000e+00	1.536867e-01
4.600000e+00	1.544688e-01
4.700000e+00	1.551815e-01
4.800000e+00	1.558705e-01
4.900000e+00	1.564079e-01
5.000000e+00	1.568560e-01
5.100000e+00	1.573961e-01
5.200000e+00	1.580546e-01
5.300000e+00	1.586173e-01
5.400000e+00	1.591349e-01
5.500000e+00	1.596034e-01
5.600000e+00	1.601138e-01
5.700000e+00	1.606470e-01
5.800000e+00	1.611661e-01
5.900000e+00	1.615949e-01
6.000000e+00	1.620307e-01
6.100000e+00	1.623981e-01
6.200000e+00	1.626562e-01
6.300000e+00	1.629891e-01
6.400000e+00	1.631991e-01
6.500000e+00	1.633605e-01
6.600000e+00	1.634889e-01
6.700000e+00	1.636564e-01
6.800000e+00	1.638658e-01
6.900000e+00	1.640780e-01
7.000000e+00	1.641622e-01
7.100000e+00	1.641768e-01
7.200000e+00	1.642063e-01
7.300000e+00	1.642117e-01
7.400000e+00	1.642476e-01
7.500000e+00	1.642867e-01
7.600000e+00	1.644051e-01
7.700000e+00	1.644717e-01
7.800000e+00	1.646375e-01
7.900000e+00	1.647587e-01
8.000000e+00	1.647434e-01
8.100000e+00	1.647805e-01
8.200000e+00	1.648654e-01
8.300000e+00	1.650074e-01
8.400000e+00	1.651705e-01
8.500000e+00	1.652908e-01
8.600000e+00	1.654847e-01
8.700000e+00	1.656538e-01
8.800000e+00	1.658432e-01
8.900000e+00	1.660955e-01
9.000000e+00	1.662834e-01
9.100000e+00	1.664931e-01
9.200000e+00	1.665929e-01
9.300000e+00	1.666372e-01
9.400000e+00	1.667631e-01
9.500000e+00	1.668995e-01
9.600000e+00	1.669422e-01
9.700000e+00	1.670401e-01
9.800000e+00	1.672585e-01
9.900000e+00	1.674651e-01
1.000000e+01	1.676930e-01
1.010000e+01	1.679192e-01
1.020000e+01	1.680318e-01
1.030000e+01	1.679601e-01
1.040000e+01	1.679030e-01
1.050000e+01	1.679754e-01
1.060000e+01	1.682271e-01
1.070000e+01	1.685073e-01
1.080000e+01	1.687034e-01
1.090000e+01	1.688029e-01
1.100000e+01	1.687595e-01
1.110000e+01	1.687045e-01
1.120000e+01	1.686828e-01
1.130000e+01	1.687243e-01
1.140000e+01	1.686820e-01
1.150000e+01	1.686319e-01
1.160000e+01	1.685068e-01
1.170000e+01	1.683969e-01
1.180000e+01	1.684110e-01
1.190000e+01	1.683826e-01
1.200000e+01	1.684980e-01
1.210000e+01	1.686232e-01
1.220000e+01	1.685652e-01
1.230000e+01	1.685045e-01
1.240000e+01	1.685386e-01
1.250000e+01	1.684516e-01
1.260000e+01	1.684195e-01
1.270000e+01	1.684439e-01
1.280000e+01	1.684983e-01
1.290000e+01	1.684660e-01
1.300000e+01	1.682821e-01
1.310000e+01	1.681621e-01
1.320000e+01	1.680750e-01
1.330000e+01	1.680433e-01
1.340000e+01	1.679840e-01
1.350000e+01	1.679085e-01
1.360000e+01	1.679747e-01
1.370000e+01	1.680342e-01
1.380000e+01	1.680282e-01
1.390000e+01	1.679644e-01
1.400000e+01	1.679337e-01
1.410000e+01	1.678635e-01
1.420000e+01	1.677271e-01
1.430000e+01	1.674736e-01
1.440000e+01	1.672837e-01
1.450000e+01	1.670115e-01
1.460000e+01	1.666810e-01
1.470000e+01	1.665010e-01
1.480000e+01	1.663467e-01
1.490000e+01	1.662173e-01
1.500000e+01	1.661487e-01
1.510000e+01	1.660991e-01
1.520000e+01	1.660144e-01
1.530000e+01	1.658379e-01
1.540000e+01	1.657227e-01
1.550000e+01	1.656027e-01
1.560000e+01	1.655594e-01
1.570000e+01	1.655237e-01
1.580000e+01	1.654525e-01
1.590000e+01	1.653750e-01
1.600000e+01	1.654996e-01
1.610000e+01	1.655039e-01
1.620000e+01	1.655421e-01
1.630000e+01	1.656602e-01
1.640000e+01	1.656818e-01
1.650000e+01	1.656651e-01
1.660000e+01	1.657626e-01
1.670000e+01	1.657760e-01
1.680000e+01	1.659543e-01
1.690000e+01	1.661016e-01
1.700000e+01	1.662414e-01
1.710000e+01	1.664486e-01
1.720000e+01	1.666648e-01
1.730000e+01	1.667356e-01
1.740000e+01	1.669460e-01
1.750000e+01	1.670611e-01
1.760000e+01	1.671518e-01
1.770000e+01	1.673321e-01
1.780000e+01	1.674866e-01
1.790000e+01	1.675612e-01
1.800000e+01	1.675862e-01
1.810000e+01	1.674969e-01
1.820000e+01	1.673329e-01
1.830000e+01	1.670788e-01
1.840000e+01	1.667814e-01
1.850000e+01	1.665994e-01
1.860000e+01	1.663451e-01
1.870000e+01	1.661211e-01
1.880000e+01	1.660014e-01
1.890000e+01	1.657811e-01
1.900000e+01	1.656100e-01
1.910000e+01	1.655880e-01
1.920000e+01	1.656040e-01
1.930000e+01	1.657507e-01
1.940000e+01	1.657975e-01
1.950000e+01	1.657715e-01
1.960000e+01	1.657855e-01
1.970000e+01	1.656678e-01
1.980000e+01	1.654343e-01
1.990000e+01	1.654048e-01
2.000000e+01	1.654720e-01
2.010000e+01	1.656044e-01
2.020000e+01	1.656364e-01
2.030000e+01	1.656775e-01
2.040000e+01	1.657055e-01
2.050000e+01	1.657530e-01
2.060000e+01	1.658057e-01
2.070000e+01	1.659575e-01
2.080000e+01	1.659706e-01
2.090000e+01	1.658093e-01
2.100000e+01	1.656629e-01
2.110000e+01	1.655175e-01
2.120000e+01	1.653690e-01
2.130000e+01	1.653567e-01
2.140000e+01	1.654656e-01
2.150000e+01	1.654752e-01
2.160000e+01	1.653715e-01
2.170000e+01	1.656188e-01
2.180000e+01	1.660046e-01
2.190000e+01	1.662102e-01
2.200000e+01	1.662949e-01
2.210000e+01	1.663303e-01
2.220000e+01	1.663255e-01
2.230000e+01	1.664367e-01
2.240000e+01	1.665196e-01
2.250000e+01	1.666164e-01
2.260000e+01	1.667427e-01
2.270000e+01	1.668934e-01
2.280000e+01	1.670146e-01
2.290000e+01	1.671194e-01
2.300000e+01	1.670244e-01
2.310000e+01	1.667659e-01
2.320000e+01	1.665795e-01
2.330000e+01	1.664697e-01
2.340000e+01	1.662410e-01
2.350000e+01	1.659697e-01
2.360000e+01	1.658964e-01
2.370000e+01	1.660529e-01
2.380000e+01	1.661406e-01
2.390000e+01	1.661377e-01
2.400000e+01	1.660001e-01
2.410000e+01	1.659939e-01
2.420000e+01	1.658780e-01
2.430000e+01	1.657627e-01
2.440000e+01	1.657527e-01
2.450000e+01	1.657538e-01
2.460000e+01	1.656154e-01
2.470000e+01	1.654077e-01
2.480000e+01	1.653099e-01
2.490000e+01	1.651014e-01
2.500000e+01	1.647896e-01
2.510000e+01	1.646209e-01
2.520000e+01	1.644701e-01
2.530000e+01	1.641232e-01
2.540000e+01	1.638656e-01
2.550000e+01	1.636279e-01
2.560000e+01	1.635701e-01
2.570000e+01	1.636316e-01
2.580000e+01	1.636439e-01
2.590000e+01	1.635139e-01
2.600000e+01	1.634650e-01
2.610000e+01	1.636053e-01
2.620000e+01	1.637446e-01
2.630000e+01	1.637906e-01
2.640000e+01	1.639073e-01
2.650000e+01	1.638782e-01
2.660000e+01	1.637826e-01
2.670000e+01	1.635247e-01
2.680000e+01	1.631694e-01
2.690000e+01	1.631931e-01
2.700000e+01	1.634606e-01
2.710000e+01	1.641737e-01
2.720000e+01	1.651867e-01
2.730000e+01	1.657514e-01
2.740000e+01	1.663206e-01
2.750000e+01	1.665888e-01
2.760000e+01	1.669047e-01
2.770000e+01	1.674296e-01
2.780000e+01	1.678539e-01
2.790000e+01	1.679346e-01
2.800000e+01	1.677575e-01
2.810000e+01	1.677036e-01
2.820000e+01	1.676710e-01
2.830000e+01	1.677853e-01
2.840000e+01	1.678391e-01
2.850000e+01	1.676890e-01
2.860000e+01	1.670284e-01
2.870000e+01	1.661404e-01
2.880000e+01	1.652181e-01
2.890000e+01	1.646420e-01
2.900000e+01	1.642276e-01
2.910000e+01	1.641500e-01
2.920000e+01	1.646383e-01
2.930000e+01	1.659615e-01
2.940000e+01	1.665204e-01
2.950000e+01	1.655953e-01
2.960000e+01	1.645096e-01
2.970000e+01	1.648732e-01
2.980000e+01	1.643860e-01
