#header: N=2	 eta=0.240000	TIME_MAX=30	TERM_TIME=20000	TEMP=0.741091
1.000000e-01	4.019248e-03
2.000000e-01	9.354087e-03
3.000000e-01	1.505264e-02
4.000000e-01	2.085880e-02
5.000000e-01	2.676723e-02
6.000000e-01	3.280209e-02
7.000000e-01	3.892372e-02
8.000000e-01	4.509412e-02
9.000000e-01	5.119527e-02
1.000000e+00	5.719455e-02
1.100000e+00	6.303568e-02
1.200000e+00	6.870776e-02
1.300000e+00	7.416236e-02
1.400000e+00	7.937477e-02
1.500000e+00	8.434113e-02
1.600000e+00	8.903864e-02
1.700000e+00	9.344793e-02
1.800000e+00	9.768533e-02
1.900000e+00	1.016890e-01
2.000000e+00	1.054584e-01
2.100000e+00	1.089618e-01
2.200000e+00	1.123333e-01
2.300000e+00	1.155277e-01
2.400000e+00	1.185457e-01
2.500000e+00	1.213968e-01
2.600000e+00	1.240502e-01
2.700000e+00	1.264886e-01
2.800000e+00	1.288211e-01
2.900000e+00	1.310680e-01
3.000000e+00	1.332633e-01
3.100000e+00	1.353105e-01
3.200000e+00	1.373340e-01
3.300000e+00	1.391962e-01
3.400000e+00	1.409260e-01
3.500000e+00	1.424718e-01
3.600000e+00	1.439223e-01
3.700000e+00	1.452406e-01
3.800000e+00	1.464468e-01
3.900000e+00	1.475850e-01
4.000000e+00	1.486747e-01
4.100000e+00	1.497005e-01
4.200000e+00	1.506356e-01
4.300000e+00	1.514275e-01
4.400000e+00	1.521838e-01
4.500000e+00	1.529831e-01
4.600000e+00	1.537429e-01
4.700000e+00	1.544700e-01
4.800000e+00	1.551724e-01
4.900000e+00	1.557986e-01
5.000000e+00	1.564196e-01
5.100000e+00	1.569866e-01
5.200000e+00	1.574389e-01
5.300000e+00	1.578164e-01
5.400000e+00	1.582028e-01
5.500000e+00	1.585953e-01
5.600000e+00	1.589794e-01
5.700000e+00	1.593702e-01
5.800000e+00	1.598010e-01
5.900000e+00	1.601420e-01
6.000000e+00	1.605391e-01
6.100000e+00	1.609343e-01
6.200000e+00	1.613299e-01
6.300000e+00	1.616947e-01
6.400000e+00	1.620654e-01
6.500000e+00	1.623712e-01
6.600000e+00	1.626088e-01
6.700000e+00	1.627652e-01
6.800000e+00	1.628998e-01
6.900000e+00	1.631158e-01
7.000000e+00	1.633574e-01
7.100000e+00	1.635738e-01
7.200000e+00	1.638606e-01
7.300000e+00	1.640641e-01
7.400000e+00	1.642161e-01
7.500000e+00	1.643563e-01
7.600000e+00	1.645623e-01
7.700000e+00	1.647857e-01
7.800000e+00	1.650201e-01
7.900000e+00	1.652487e-01
8.000000e+00	1.654552e-01
8.100000e+00	1.656892e-01
8.200000e+00	1.660244e-01
8.300000e+00	1.662998e-01
8.400000e+00	1.665187e-01
8.500000e+00	1.666154e-01
8.600000e+00	1.667927e-01
8.700000e+00	1.670375e-01
8.800000e+00	1.673802e-01
8.900000e+00	1.676710e-01
9.000000e+00	1.678228e-01
9.100000e+00	1.679331e-01
9.200000e+00	1.679963e-01
9.300000e+00	1.680666e-01
9.400000e+00	1.681228e-01
9.500000e+00	1.682364e-01
9.600000e+00	1.683702e-01
9.700000e+00	1.683714e-01
9.800000e+00	1.683407e-01
9.900000e+00	1.681915e-01
1.000000e+01	1.681161e-01
1.010000e+01	1.679890e-01
1.020000e+01	1.678504e-01
1.030000e+01	1.677825e-01
1.040000e+01	1.676279e-01
1.050000e+01	1.674057e-01
1.060000e+01	1.671615e-01
1.070000e+01	1.669205e-01
1.080000e+01	1.666861e-01
1.090000e+01	1.665294e-01
1.100000e+01	1.663674e-01
1.110000e+01	1.663336e-01
1.120000e+01	1.663621e-01
1.130000e+01	1.663261e-01
1.140000e+01	1.662550e-01
1.150000e+01	1.661377e-01
1.160000e+01	1.659336e-01
1.170000e+01	1.658172e-01
1.180000e+01	1.657367e-01
1.190000e+01	1.656156e-01
1.200000e+01	1.655769e-01
1.210000e+01	1.655114e-01
1.220000e+01	1.653598e-01
1.230000e+01	1.652152e-01
1.240000e+01	1.651204e-01
1.250000e+01	1.650079e-01
1.260000e+01	1.648968e-01
1.270000e+01	1.648298e-01
1.280000e+01	1.648665e-01
1.290000e+01	1.648501e-01
1.300000e+01	1.647306e-01
1.310000e+01	1.646570e-01
1.320000e+01	1.647038e-01
1.330000e+01	1.647205e-01
1.340000e+01	1.647122e-01
1.350000e+01	1.647135e-01
1.360000e+01	1.646127e-01
1.370000e+01	1.645583e-01
1.380000e+01	1.646001e-01
1.390000e+01	1.646596e-01
1.400000e+01	1.646754e-01
1.410000e+01	1.646128e-01
1.420000e+01	1.645161e-01
1.430000e+01	1.643602e-01
1.440000e+01	1.642468e-01
1.450000e+01	1.640285e-01
1.460000e+01	1.638404e-01
1.470000e+01	1.636910e-01
1.480000e+01	1.636964e-01
1.490000e+01	1.637326e-01
1.500000e+01	1.637534e-01
1.510000e+01	1.638281e-01
1.520000e+01	1.638789e-01
1.530000e+01	1.639236e-01
1.540000e+01	1.640278e-01
1.550000e+01	1.641528e-01
1.560000e+01	1.644333e-01
1.570000e+01	1.646707e-01
1.580000e+01	1.649180e-01
1.590000e+01	1.650904e-01
1.600000e+01	1.654267e-01
1.610000e+01	1.657213e-01
1.620000e+01	1.658472e-01
1.630000e+01	1.659765e-01
1.640000e+01	1.661365e-01
1.650000e+01	1.661992e-01
1.660000e+01	1.661783e-01
1.670000e+01	1.662584e-01
1.680000e+01	1.663877e-01
1.690000e+01	1.664964e-01
1.700000e+01	1.664594e-01
1.710000e+01	1.665090e-01
1.720000e+01	1.665718e-01
1.730000e+01	1.666102e-01
1.740000e+01	1.667911e-01
1.750000e+01	1.669414e-01
1.760000e+01	1.670831e-01
1.770000e+01	1.673209e-01
1.780000e+01	1.676026e-01
1.790000e+01	1.678748e-01
1.800000e+01	1.681131e-01
1.810000e+01	1.683065e-01
1.820000e+01	1.685872e-01
1.830000e+01	1.689688e-01
1.840000e+01	1.693434e-01
1.850000e+01	1.695912e-01
1.860000e+01	1.697728e-01
1.870000e+01	1.698310e-01
1.880000e+01	1.699365e-01
1.890000e+01	1.700296e-01
1.900000e+01	1.700470e-01
1.910000e+01	1.700013e-01
1.920000e+01	1.698912e-01
1.930000e+01	1.696870e-01
1.940000e+01	1.694681e-01
1.950000e+01	1.692249e-01
1.960000e+01	1.690321e-01
1.970000e+01	1.689515e-01
1.980000e+01	1.686747e-01
1.990000e+01	1.686732e-01
2.000000e+01	1.686800e-01
2.010000e+01	1.686896e-01
2.020000e+01	1.685349e-01
2.030000e+01	1.682698e-01
2.040000e+01	1.680193e-01
2.050000e+01	1.677373e-01
2.060000e+01	1.673089e-01
2.070000e+01	1.666969e-01
2.080000e+01	1.661437e-01
2.090000e+01	1.655371e-01
2.100000e+01	1.650693e-01
2.110000e+01	1.645725e-01
2.120000e+01	1.640267e-01
2.130000e+01	1.634449e-01
2.140000e+01	1.628532e-01
2.150000e+01	1.624131e-01
2.160000e+01	1.621128e-01
2.170000e+01	1.619256e-01
2.180000e+01	1.618564e-01
2.190000e+01	1.617536e-01
2.200000e+01	1.617256e-01
2.210000e+01	1.617183e-01
2.220000e+01	1.619118e-01
2.230000e+01	1.622799e-01
2.240000e+01	1.626467e-01
2.250000e+01	1.628364e-01
2.260000e+01	1.630487e-01
2.270000e+01	1.633052e-01
2.280000e+01	1.637178e-01
2.290000e+01	1.644112e-01
2.300000e+01	1.650774e-01
2.310000e+01	1.655939e-01
2.320000e+01	1.660818e-01
2.330000e+01	1.664328e-01
2.340000e+01	1.667200e-01
2.350000e+01	1.670999e-01
2.360000e+01	1.673626e-01
2.370000e+01	1.675860e-01
2.380000e+01	1.676556e-01
2.390000e+01	1.678528e-01
2.400000e+01	1.678443e-01
2.410000e+01	1.676948e-01
2.420000e+01	1.675750e-01
2.430000e+01	1.673637e-01
2.440000e+01	1.671792e-01
2.450000e+01	1.670609e-01
2.460000e+01	1.667916e-01
2.470000e+01	1.666773e-01
2.480000e+01	1.666586e-01
2.490000e+01	1.665937e-01
2.500000e+01	1.663964e-01
2.510000e+01	1.662430e-01
2.520000e+01	1.660904e-01
2.530000e+01	1.661091e-01
2.540000e+01	1.661943e-01
2.550000e+01	1.660680e-01
2.560000e+01	1.662207e-01
2.570000e+01	1.662246e-01
2.580000e+01	1.666035e-01
2.590000e+01	1.672126e-01
2.600000e+01	1.676658e-01
2.610000e+01	1.679483e-01
2.620000e+01	1.678982e-01
2.630000e+01	1.676345e-01
2.640000e+01	1.676164e-01
2.650000e+01	1.678862e-01
2.660000e+01	1.682329e-01
2.670000e+01	1.684639e-01
2.680000e+01	1.684692e-01
2.690000e+01	1.679778e-01
2.700000e+01	1.678264e-01
2.710000e+01	1.671648e-01
2.720000e+01	1.664620e-01
2.730000e+01	1.655695e-01
2.740000e+01	1.646836e-01
2.750000e+01	1.643884e-01
2.760000e+01	1.642378e-01
2.770000e+01	1.642643e-01
2.780000e+01	1.646051e-01
2.790000e+01	1.652080e-01
2.800000e+01	1.649733e-01
2.810000e+01	1.650207e-01
2.820000e+01	1.646291e-01
2.830000e+01	1.639665e-01
2.840000e+01	1.637281e-01
2.850000e+01	1.631908e-01
2.860000e+01	1.628163e-01
2.870000e+01	1.619023e-01
2.880000e+01	1.606685e-01
2.890000e+01	1.597068e-01
2.900000e+01	1.595833e-01
2.910000e+01	1.596977e-01
2.920000e+01	1.607200e-01
2.930000e+01	1.620567e-01
2.940000e+01	1.624523e-01
2.950000e+01	1.616387e-01
2.960000e+01	1.620199e-01
2.970000e+01	1.621305e-01
2.980000e+01	1.631060e-01
