#header: N=2	 eta=0.240000	TIME_MAX=30	TERM_TIME=20000	TEMP=0.653862
1.000000e-01	3.709155e-03
2.000000e-01	8.591273e-03
3.000000e-01	1.379669e-02
4.000000e-01	1.915135e-02
5.000000e-01	2.458990e-02
6.000000e-01	3.011806e-02
7.000000e-01	3.569242e-02
8.000000e-01	4.131729e-02
9.000000e-01	4.696791e-02
1.000000e+00	5.257900e-02
1.100000e+00	5.811262e-02
1.200000e+00	6.348136e-02
1.300000e+00	6.861816e-02
1.400000e+00	7.356751e-02
1.500000e+00	7.829809e-02
1.600000e+00	8.287203e-02
1.700000e+00	8.729982e-02
1.800000e+00	9.142963e-02
1.900000e+00	9.532658e-02
2.000000e+00	9.907622e-02
2.100000e+00	1.026906e-01
2.200000e+00	1.061999e-01
2.300000e+00	1.094736e-01
2.400000e+00	1.125921e-01
2.500000e+00	1.155949e-01
2.600000e+00	1.184062e-01
2.700000e+00	1.210782e-01
2.800000e+00	1.236470e-01
2.900000e+00	1.260702e-01
3.000000e+00	1.284371e-01
3.100000e+00	1.306419e-01
3.200000e+00	1.327436e-01
3.300000e+00	1.346816e-01
3.400000e+00	1.364742e-01
3.500000e+00	1.381237e-01
3.600000e+00	1.396982e-01
3.700000e+00	1.412173e-01
3.800000e+00	1.427187e-01
3.900000e+00	1.440974e-01
4.000000e+00	1.454036e-01
4.100000e+00	1.465808e-01
4.200000e+00	1.476832e-01
4.300000e+00	1.487009e-01
4.400000e+00	1.496988e-01
4.500000e+00	1.507527e-01
4.600000e+00	1.517001e-01
4.700000e+00	1.525243e-01
4.800000e+00	1.533727e-01
4.900000e+00	1.542540e-01
5.000000e+00	1.550706e-01
5.100000e+00	1.557679e-01
5.200000e+00	1.564159e-01
5.300000e+00	1.570769e-01
5.400000e+00	1.576797e-01
5.500000e+00	1.581748e-01
5.600000e+00	1.585706e-01
5.700000e+00	1.589587e-01
5.800000e+00	1.593376e-01
5.900000e+00	1.597072e-01
6.000000e+00	1.600673e-01
6.100000e+00	1.604810e-01
6.200000e+00	1.608691e-01
6.300000e+00	1.611967e-01
6.400000e+00	1.614873e-01
6.500000e+00	1.617653e-01
6.600000e+00	1.619879e-01
6.700000e+00	1.622000e-01
6.800000e+00	1.624358e-01
6.900000e+00	1.626346e-01
7.000000e+00	1.627785e-01
7.100000e+00	1.630022e-01
7.200000e+00	1.632323e-01
7.300000e+00	1.635095e-01
7.400000e+00	1.638623e-01
7.500000e+00	1.642254e-01
7.600000e+00	1.644990e-01
7.700000e+00	1.647266e-01
7.800000e+00	1.649508e-01
7.900000e+00	1.651107e-01
8.000000e+00	1.652058e-01
8.100000e+00	1.653058e-01
8.200000e+00	1.653338e-01
8.300000e+00	1.654053e-01
8.400000e+00	1.654902e-01
8.500000e+00	1.657046e-01
8.600000e+00	1.659370e-01
8.700000e+00	1.661831e-01
8.800000e+00	1.664444e-01
8.900000e+00	1.666716e-01
9.000000e+00	1.668337e-01
9.100000e+00	1.668876e-01
9.200000e+00	1.669387e-01
9.300000e+00	1.670127e-01
9.400000e+00	1.671295e-01
9.500000e+00	1.671109e-01
9.600000e+00	1.671179e-01
9.700000e+00	1.670723e-01
9.800000e+00	1.669025e-01
9.900000e+00	1.667267e-01
1.000000e+01	1.666138e-01
1.010000e+01	1.665415e-01
1.020000e+01	1.664884e-01
1.030000e+01	1.663107e-01
1.040000e+01	1.660893e-01
1.050000e+01	1.658831e-01
1.060000e+01	1.657763e-01
1.070000e+01	1.656837e-01
1.080000e+01	1.655351e-01
1.090000e+01	1.654998e-01
1.100000e+01	1.653340e-01
1.110000e+01	1.651877e-01
1.120000e+01	1.650263e-01
1.130000e+01	1.649083e-01
1.140000e+01	1.648418e-01
1.150000e+01	1.648395e-01
1.160000e+01	1.648298e-01
1.170000e+01	1.649487e-01
1.180000e+01	1.650689e-01
1.190000e+01	1.650359e-01
1.200000e+01	1.650689e-01
1.210000e+01	1.651209e-01
1.220000e+01	1.651850e-01
1.230000e+01	1.652004e-01
1.240000e+01	1.651721e-01
1.250000e+01	1.653037e-01
1.260000e+01	1.655624e-01
1.270000e+01	1.658532e-01
1.280000e+01	1.660898e-01
1.290000e+01	1.661949e-01
1.300000e+01	1.663075e-01
1.310000e+01	1.663186e-01
1.320000e+01	1.662254e-01
1.330000e+01	1.661275e-01
1.340000e+01	1.659222e-01
1.350000e+01	1.658118e-01
1.360000e+01	1.658121e-01
1.370000e+01	1.657543e-01
1.380000e+01	1.658857e-01
1.390000e+01	1.659974e-01
1.400000e+01	1.660889e-01
1.410000e+01	1.662055e-01
1.420000e+01	1.661494e-01
1.430000e+01	1.660643e-01
1.440000e+01	1.659425e-01
1.450000e+01	1.658812e-01
1.460000e+01	1.658713e-01
1.470000e+01	1.659129e-01
1.480000e+01	1.658202e-01
1.490000e+01	1.657604e-01
1.500000e+01	1.656219e-01
1.510000e+01	1.654870e-01
1.520000e+01	1.654754e-01
1.530000e+01	1.654712e-01
1.540000e+01	1.655846e-01
1.550000e+01	1.656352e-01
1.560000e+01	1.657110e-01
1.570000e+01	1.656626e-01
1.580000e+01	1.656517e-01
1.590000e+01	1.656050e-01
1.600000e+01	1.655324e-01
1.610000e+01	1.656265e-01
1.620000e+01	1.655700e-01
1.630000e+01	1.654666e-01
1.640000e+01	1.653433e-01
1.650000e+01	1.652933e-01
1.660000e+01	1.652221e-01
1.670000e+01	1.651367e-01
1.680000e+01	1.649522e-01
1.690000e+01	1.646982e-01
1.700000e+01	1.644556e-01
1.710000e+01	1.642008e-01
1.720000e+01	1.641484e-01
1.730000e+01	1.640389e-01
1.740000e+01	1.641376e-01
1.750000e+01	1.641057e-01
1.760000e+01	1.640998e-01
1.770000e+01	1.640380e-01
1.780000e+01	1.639531e-01
1.790000e+01	1.638211e-01
1.800000e+01	1.636567e-01
1.810000e+01	1.634280e-01
1.820000e+01	1.632427e-01
1.830000e+01	1.630224e-01
1.840000e+01	1.627423e-01
1.850000e+01	1.624732e-01
1.860000e+01	1.621771e-01
1.870000e+01	1.618035e-01
1.880000e+01	1.615093e-01
1.890000e+01	1.612039e-01
1.900000e+01	1.608379e-01
1.910000e+01	1.605643e-01
1.920000e+01	1.602123e-01
1.930000e+01	1.597825e-01
1.940000e+01	1.594846e-01
1.950000e+01	1.591191e-01
1.960000e+01	1.587754e-01
1.970000e+01	1.584341e-01
1.980000e+01	1.578863e-01
1.990000e+01	1.572960e-01
2.000000e+01	1.568047e-01
2.010000e+01	1.563317e-01
2.020000e+01	1.558354e-01
2.030000e+01	1.553103e-01
2.040000e+01	1.549785e-01
2.050000e+01	1.546391e-01
2.060000e+01	1.542720e-01
2.070000e+01	1.538463e-01
2.080000e+01	1.535124e-01
2.090000e+01	1.530877e-01
2.100000e+01	1.528019e-01
2.110000e+01	1.526282e-01
2.120000e+01	1.525654e-01
2.130000e+01	1.526291e-01
2.140000e+01	1.527339e-01
2.150000e+01	1.526731e-01
2.160000e+01	1.526112e-01
2.170000e+01	1.526294e-01
2.180000e+01	1.526684e-01
2.190000e+01	1.527525e-01
2.200000e+01	1.529906e-01
2.210000e+01	1.533667e-01
2.220000e+01	1.539235e-01
2.230000e+01	1.543936e-01
2.240000e+01	1.549945e-01
2.250000e+01	1.556633e-01
2.260000e+01	1.562296e-01
2.270000e+01	1.565540e-01
2.280000e+01	1.569034e-01
2.290000e+01	1.570969e-01
2.300000e+01	1.574928e-01
2.310000e+01	1.579198e-01
2.320000e+01	1.584285e-01
2.330000e+01	1.589156e-01
2.340000e+01	1.592657e-01
2.350000e+01	1.594517e-01
2.360000e+01	1.596278e-01
2.370000e+01	1.597975e-01
2.380000e+01	1.600586e-01
2.390000e+01	1.600431e-01
2.400000e+01	1.600500e-01
2.410000e+01	1.600737e-01
2.420000e+01	1.599548e-01
2.430000e+01	1.597764e-01
2.440000e+01	1.597631e-01
2.450000e+01	1.597527e-01
2.460000e+01	1.597840e-01
2.470000e+01	1.598981e-01
2.480000e+01	1.600869e-01
2.490000e+01	1.602785e-01
2.500000e+01	1.605905e-01
2.510000e+01	1.607599e-01
2.520000e+01	1.609306e-01
2.530000e+01	1.611575e-01
2.540000e+01	1.616891e-01
2.550000e+01	1.620994e-01
2.560000e+01	1.622931e-01
2.570000e+01	1.623196e-01
2.580000e+01	1.622879e-01
2.590000e+01	1.622246e-01
2.600000e+01	1.624323e-01
2.610000e+01	1.628722e-01
2.620000e+01	1.630783e-01
2.630000e+01	1.632992e-01
2.640000e+01	1.635352e-01
2.650000e+01	1.639631e-01
2.660000e+01	1.646113e-01
2.670000e+01	1.649211e-01
2.680000e+01	1.652938e-01
2.690000e+01	1.655972e-01
2.700000e+01	1.657312e-01
2.710000e+01	1.661468e-01
2.720000e+01	1.667203e-01
2.730000e+01	1.670410e-01
2.740000e+01	1.673978e-01
2.750000e+01	1.675851e-01
2.760000e+01	1.676714e-01
2.770000e+01	1.674247e-01
2.780000e+01	1.670732e-01
2.790000e+01	1.667758e-01
2.800000e+01	1.668337e-01
2.810000e+01	1.672462e-01
2.820000e+01	1.675597e-01
2.830000e+01	1.680348e-01
2.840000e+01	1.689853e-01
2.850000e+01	1.702765e-01
2.860000e+01	1.719916e-01
2.870000e+01	1.730794e-01
2.880000e+01	1.740636e-01
2.890000e+01	1.750247e-01
2.900000e+01	1.755720e-01
2.910000e+01	1.771709e-01
2.920000e+01	1.784146e-01
2.930000e+01	1.793243e-01
2.940000e+01	1.791254e-01
2.950000e+01	1.784886e-01
2.960000e+01	1.772479e-01
2.970000e+01	1.743111e-01
2.980000e+01	1.705897e-01
