#header: N=2	 eta=0.260000	TIME_MAX=30	TERM_TIME=20000	TEMP=0.642481
1.000000e-01	3.525622e-03
2.000000e-01	8.088658e-03
3.000000e-01	1.293143e-02
4.000000e-01	1.789597e-02
5.000000e-01	2.298170e-02
6.000000e-01	2.815650e-02
7.000000e-01	3.340936e-02
8.000000e-01	3.868902e-02
9.000000e-01	4.398180e-02
1.000000e+00	4.920348e-02
1.100000e+00	5.433018e-02
1.200000e+00	5.932341e-02
1.300000e+00	6.417521e-02
1.400000e+00	6.887961e-02
1.500000e+00	7.341796e-02
1.600000e+00	7.776014e-02
1.700000e+00	8.194028e-02
1.800000e+00	8.597220e-02
1.900000e+00	8.988264e-02
2.000000e+00	9.362685e-02
2.100000e+00	9.724166e-02
2.200000e+00	1.006685e-01
2.300000e+00	1.039262e-01
2.400000e+00	1.070103e-01
2.500000e+00	1.099225e-01
2.600000e+00	1.127236e-01
2.700000e+00	1.154134e-01
2.800000e+00	1.179484e-01
2.900000e+00	1.203435e-01
3.000000e+00	1.225787e-01
3.100000e+00	1.247201e-01
3.200000e+00	1.267799e-01
3.300000e+00	1.287541e-01
3.400000e+00	1.306314e-01
3.500000e+00	1.323905e-01
3.600000e+00	1.340487e-01
3.700000e+00	1.355753e-01
3.800000e+00	1.369522e-01
3.900000e+00	1.382534e-01
4.000000e+00	1.394744e-01
4.100000e+00	1.407529e-01
4.200000e+00	1.420913e-01
4.300000e+00	1.434143e-01
4.400000e+00	1.445969e-01
4.500000e+00	1.456694e-01
4.600000e+00	1.466050e-01
4.700000e+00	1.474426e-01
4.800000e+00	1.481328e-01
4.900000e+00	1.487980e-01
5.000000e+00	1.494890e-01
5.100000e+00	1.501983e-01
5.200000e+00	1.508915e-01
5.300000e+00	1.516014e-01
5.400000e+00	1.522233e-01
5.500000e+00	1.527737e-01
5.600000e+00	1.533212e-01
5.700000e+00	1.538743e-01
5.800000e+00	1.544363e-01
5.900000e+00	1.550446e-01
6.000000e+00	1.556249e-01
6.100000e+00	1.561171e-01
6.200000e+00	1.566476e-01
6.300000e+00	1.571492e-01
6.400000e+00	1.576738e-01
6.500000e+00	1.581803e-01
6.600000e+00	1.587498e-01
6.700000e+00	1.592835e-01
6.800000e+00	1.597335e-01
6.900000e+00	1.602005e-01
7.000000e+00	1.607128e-01
7.100000e+00	1.613387e-01
7.200000e+00	1.618719e-01
7.300000e+00	1.624122e-01
7.400000e+00	1.629559e-01
7.500000e+00	1.634638e-01
7.600000e+00	1.639036e-01
7.700000e+00	1.642976e-01
7.800000e+00	1.645351e-01
7.900000e+00	1.648184e-01
8.000000e+00	1.650674e-01
8.100000e+00	1.653084e-01
8.200000e+00	1.655328e-01
8.300000e+00	1.656886e-01
8.400000e+00	1.658030e-01
8.500000e+00	1.659507e-01
8.600000e+00	1.660269e-01
8.700000e+00	1.661458e-01
8.800000e+00	1.663132e-01
8.900000e+00	1.664156e-01
9.000000e+00	1.664871e-01
9.100000e+00	1.665146e-01
9.200000e+00	1.665200e-01
9.300000e+00	1.664872e-01
9.400000e+00	1.665008e-01
9.500000e+00	1.664604e-01
9.600000e+00	1.664425e-01
9.700000e+00	1.663708e-01
9.800000e+00	1.663246e-01
9.900000e+00	1.662680e-01
1.000000e+01	1.662860e-01
1.010000e+01	1.664121e-01
1.020000e+01	1.664693e-01
1.030000e+01	1.665875e-01
1.040000e+01	1.665409e-01
1.050000e+01	1.664681e-01
1.060000e+01	1.664653e-01
1.070000e+01	1.664914e-01
1.080000e+01	1.665075e-01
1.090000e+01	1.666346e-01
1.100000e+01	1.667838e-01
1.110000e+01	1.668271e-01
1.120000e+01	1.668163e-01
1.130000e+01	1.667837e-01
1.140000e+01	1.667512e-01
1.150000e+01	1.667688e-01
1.160000e+01	1.668739e-01
1.170000e+01	1.669434e-01
1.180000e+01	1.670410e-01
1.190000e+01	1.670732e-01
1.200000e+01	1.671059e-01
1.210000e+01	1.671157e-01
1.220000e+01	1.671125e-01
1.230000e+01	1.671497e-01
1.240000e+01	1.672147e-01
1.250000e+01	1.671510e-01
1.260000e+01	1.671064e-01
1.270000e+01	1.671197e-01
1.280000e+01	1.671584e-01
1.290000e+01	1.672062e-01
1.300000e+01	1.672175e-01
1.310000e+01	1.671674e-01
1.320000e+01	1.670686e-01
1.330000e+01	1.669085e-01
1.340000e+01	1.668097e-01
1.350000e+01	1.666916e-01
1.360000e+01	1.666102e-01
1.370000e+01	1.664755e-01
1.380000e+01	1.663081e-01
1.390000e+01	1.662614e-01
1.400000e+01	1.661223e-01
1.410000e+01	1.660007e-01
1.420000e+01	1.658577e-01
1.430000e+01	1.658129e-01
1.440000e+01	1.658045e-01
1.450000e+01	1.657461e-01
1.460000e+01	1.656565e-01
1.470000e+01	1.655859e-01
1.480000e+01	1.654662e-01
1.490000e+01	1.654225e-01
1.500000e+01	1.654944e-01
1.510000e+01	1.655307e-01
1.520000e+01	1.656371e-01
1.530000e+01	1.655722e-01
1.540000e+01	1.655700e-01
1.550000e+01	1.655421e-01
1.560000e+01	1.655259e-01
1.570000e+01	1.655675e-01
1.580000e+01	1.655858e-01
1.590000e+01	1.655489e-01
1.600000e+01	1.655394e-01
1.610000e+01	1.654726e-01
1.620000e+01	1.654291e-01
1.630000e+01	1.654776e-01
1.640000e+01	1.654604e-01
1.650000e+01	1.653777e-01
1.660000e+01	1.652816e-01
1.670000e+01	1.652438e-01
1.680000e+01	1.651778e-01
1.690000e+01	1.651858e-01
1.700000e+01	1.652395e-01
1.710000e+01	1.651774e-01
1.720000e+01	1.651432e-01
1.730000e+01	1.650727e-01
1.740000e+01	1.651160e-01
1.750000e+01	1.651158e-01
1.760000e+01	1.651125e-01
1.770000e+01	1.650655e-01
1.780000e+01	1.650247e-01
1.790000e+01	1.650503e-01
1.800000e+01	1.651144e-01
1.810000e+01	1.649961e-01
1.820000e+01	1.649883e-01
1.830000e+01	1.650259e-01
1.840000e+01	1.651050e-01
1.850000e+01	1.652175e-01
1.860000e+01	1.653952e-01
1.870000e+01	1.655928e-01
1.880000e+01	1.657600e-01
1.890000e+01	1.659604e-01
1.900000e+01	1.662209e-01
1.910000e+01	1.663659e-01
1.920000e+01	1.663392e-01
1.930000e+01	1.663951e-01
1.940000e+01	1.663914e-01
1.950000e+01	1.662289e-01
1.960000e+01	1.661881e-01
1.970000e+01	1.661343e-01
1.980000e+01	1.661842e-01
1.990000e+01	1.663662e-01
2.000000e+01	1.664477e-01
2.010000e+01	1.664901e-01
2.020000e+01	1.663974e-01
2.030000e+01	1.664996e-01
2.040000e+01	1.666075e-01
2.050000e+01	1.666573e-01
2.060000e+01	1.666638e-01
2.070000e+01	1.665104e-01
2.080000e+01	1.664713e-01
2.090000e+01	1.665284e-01
2.100000e+01	1.664259e-01
2.110000e+01	1.662253e-01
2.120000e+01	1.661512e-01
2.130000e+01	1.661055e-01
2.140000e+01	1.660787e-01
2.150000e+01	1.660662e-01
2.160000e+01	1.658964e-01
2.170000e+01	1.658482e-01
2.180000e+01	1.658941e-01
2.190000e+01	1.658925e-01
2.200000e+01	1.658883e-01
2.210000e+01	1.659293e-01
2.220000e+01	1.660412e-01
2.230000e+01	1.661982e-01
2.240000e+01	1.662897e-01
2.250000e+01	1.663886e-01
2.260000e+01	1.664481e-01
2.270000e+01	1.664844e-01
2.280000e+01	1.664990e-01
2.290000e+01	1.664772e-01
2.300000e+01	1.663685e-01
2.310000e+01	1.662650e-01
2.320000e+01	1.661261e-01
2.330000e+01	1.661625e-01
2.340000e+01	1.663749e-01
2.350000e+01	1.666566e-01
2.360000e+01	1.668592e-01
2.370000e+01	1.670106e-01
2.380000e+01	1.670064e-01
2.390000e+01	1.670490e-01
2.400000e+01	1.668304e-01
2.410000e+01	1.666654e-01
2.420000e+01	1.666152e-01
2.430000e+01	1.666777e-01
2.440000e+01	1.665872e-01
2.450000e+01	1.662095e-01
2.460000e+01	1.659737e-01
2.470000e+01	1.659131e-01
2.480000e+01	1.661114e-01
2.490000e+01	1.661574e-01
2.500000e+01	1.662833e-01
2.510000e+01	1.663579e-01
2.520000e+01	1.665603e-01
2.530000e+01	1.667892e-01
2.540000e+01	1.669122e-01
2.550000e+01	1.670735e-01
2.560000e+01	1.671284e-01
2.570000e+01	1.669558e-01
2.580000e+01	1.671234e-01
2.590000e+01	1.672482e-01
2.600000e+01	1.672829e-01
2.610000e+01	1.673362e-01
2.620000e+01	1.678046e-01
2.630000e+01	1.681770e-01
2.640000e+01	1.684878e-01
2.650000e+01	1.688896e-01
2.660000e+01	1.691709e-01
2.670000e+01	1.694163e-01
2.680000e+01	1.693020e-01
2.690000e+01	1.692041e-01
2.700000e+01	1.687329e-01
2.710000e+01	1.682815e-01
2.720000e+01	1.677260e-01
2.730000e+01	1.673512e-01
2.740000e+01	1.674159e-01
2.750000e+01	1.675735e-01
2.760000e+01	1.678261e-01
2.770000e+01	1.677680e-01
2.780000e+01	1.675625e-01
2.790000e+01	1.675338e-01
2.800000e+01	1.669943e-01
2.810000e+01	1.663781e-01
2.820000e+01	1.658048e-01
2.830000e+01	1.652580e-01
2.840000e+01	1.647049e-01
2.850000e+01	1.639002e-01
2.860000e+01	1.631393e-01
2.870000e+01	1.628922e-01
2.880000e+01	1.629318e-01
2.890000e+01	1.636636e-01
2.900000e+01	1.649627e-01
2.910000e+01	1.661491e-01
2.920000e+01	1.668940e-01
2.930000e+01	1.668979e-01
2.940000e+01	1.666810e-01
2.950000e+01	1.665913e-01
2.960000e+01	1.676579e-01
2.970000e+01	1.679373e-01
2.980000e+01	1.663777e-01
