#header: N=2	 eta=0.270000	TIME_MAX=30	TERM_TIME=20000	TEMP=0.592777
1.000000e-01	3.302690e-03
2.000000e-01	7.507920e-03
3.000000e-01	1.200879e-02
4.000000e-01	1.664173e-02
5.000000e-01	2.137708e-02
6.000000e-01	2.620056e-02
7.000000e-01	3.111197e-02
8.000000e-01	3.609691e-02
9.000000e-01	4.110695e-02
1.000000e+00	4.610780e-02
1.100000e+00	5.107233e-02
1.200000e+00	5.594004e-02
1.300000e+00	6.068995e-02
1.400000e+00	6.536787e-02
1.500000e+00	6.996630e-02
1.600000e+00	7.440176e-02
1.700000e+00	7.867865e-02
1.800000e+00	8.281040e-02
1.900000e+00	8.672573e-02
2.000000e+00	9.054645e-02
2.100000e+00	9.424295e-02
2.200000e+00	9.781749e-02
2.300000e+00	1.012739e-01
2.400000e+00	1.045383e-01
2.500000e+00	1.076505e-01
2.600000e+00	1.106589e-01
2.700000e+00	1.135252e-01
2.800000e+00	1.162865e-01
2.900000e+00	1.189956e-01
3.000000e+00	1.214642e-01
3.100000e+00	1.237540e-01
3.200000e+00	1.258800e-01
3.300000e+00	1.278542e-01
3.400000e+00	1.297765e-01
3.500000e+00	1.316032e-01
3.600000e+00	1.333648e-01
3.700000e+00	1.350230e-01
3.800000e+00	1.365695e-01
3.900000e+00	1.380390e-01
4.000000e+00	1.394096e-01
4.100000e+00	1.407300e-01
4.200000e+00	1.419929e-01
4.300000e+00	1.431700e-01
4.400000e+00	1.443009e-01
4.500000e+00	1.453399e-01
4.600000e+00	1.462713e-01
4.700000e+00	1.471303e-01
4.800000e+00	1.479780e-01
4.900000e+00	1.487265e-01
5.000000e+00	1.494514e-01
5.100000e+00	1.501257e-01
5.200000e+00	1.507544e-01
5.300000e+00	1.515157e-01
5.400000e+00	1.522302e-01
5.500000e+00	1.528811e-01
5.600000e+00	1.535167e-01
5.700000e+00	1.540993e-01
5.800000e+00	1.546026e-01
5.900000e+00	1.550794e-01
6.000000e+00	1.555298e-01
6.100000e+00	1.559878e-01
6.200000e+00	1.563808e-01
6.300000e+00	1.568157e-01
6.400000e+00	1.572122e-01
6.500000e+00	1.576283e-01
6.600000e+00	1.580269e-01
6.700000e+00	1.583759e-01
6.800000e+00	1.586914e-01
6.900000e+00	1.589611e-01
7.000000e+00	1.591404e-01
7.100000e+00	1.592440e-01
7.200000e+00	1.594208e-01
7.300000e+00	1.596434e-01
7.400000e+00	1.598978e-01
7.500000e+00	1.601905e-01
7.600000e+00	1.603941e-01
7.700000e+00	1.605008e-01
7.800000e+00	1.605006e-01
7.900000e+00	1.605046e-01
8.000000e+00	1.605698e-01
8.100000e+00	1.606476e-01
8.200000e+00	1.607312e-01
8.300000e+00	1.608630e-01
8.400000e+00	1.609944e-01
8.500000e+00	1.610547e-01
8.600000e+00	1.611697e-01
8.700000e+00	1.613141e-01
8.800000e+00	1.614532e-01
8.900000e+00	1.615490e-01
9.000000e+00	1.616555e-01
9.100000e+00	1.617235e-01
9.200000e+00	1.619087e-01
9.300000e+00	1.620766e-01
9.400000e+00	1.622155e-01
9.500000e+00	1.625244e-01
9.600000e+00	1.628034e-01
9.700000e+00	1.629874e-01
9.800000e+00	1.631470e-01
9.900000e+00	1.633000e-01
1.000000e+01	1.634797e-01
1.010000e+01	1.636105e-01
1.020000e+01	1.637495e-01
1.030000e+01	1.637454e-01
1.040000e+01	1.637396e-01
1.050000e+01	1.636724e-01
1.060000e+01	1.636831e-01
1.070000e+01	1.637236e-01
1.080000e+01	1.637406e-01
1.090000e+01	1.637282e-01
1.100000e+01	1.637530e-01
1.110000e+01	1.638066e-01
1.120000e+01	1.638923e-01
1.130000e+01	1.638696e-01
1.140000e+01	1.639099e-01
1.150000e+01	1.639607e-01
1.160000e+01	1.640374e-01
1.170000e+01	1.641738e-01
1.180000e+01	1.641210e-01
1.190000e+01	1.640291e-01
1.200000e+01	1.639253e-01
1.210000e+01	1.639624e-01
1.220000e+01	1.640841e-01
1.230000e+01	1.641663e-01
1.240000e+01	1.641980e-01
1.250000e+01	1.642594e-01
1.260000e+01	1.643291e-01
1.270000e+01	1.644107e-01
1.280000e+01	1.645367e-01
1.290000e+01	1.647299e-01
1.300000e+01	1.648962e-01
1.310000e+01	1.650740e-01
1.320000e+01	1.652333e-01
1.330000e+01	1.654383e-01
1.340000e+01	1.655487e-01
1.350000e+01	1.656033e-01
1.360000e+01	1.655868e-01
1.370000e+01	1.655252e-01
1.380000e+01	1.654653e-01
1.390000e+01	1.654520e-01
1.400000e+01	1.655081e-01
1.410000e+01	1.656567e-01
1.420000e+01	1.658887e-01
1.430000e+01	1.660926e-01
1.440000e+01	1.663340e-01
1.450000e+01	1.666567e-01
1.460000e+01	1.666811e-01
1.470000e+01	1.666819e-01
1.480000e+01	1.666378e-01
1.490000e+01	1.666351e-01
1.500000e+01	1.667630e-01
1.510000e+01	1.668649e-01
1.520000e+01	1.668948e-01
1.530000e+01	1.668845e-01
1.540000e+01	1.667899e-01
1.550000e+01	1.667961e-01
1.560000e+01	1.667127e-01
1.570000e+01	1.666777e-01
1.580000e+01	1.666778e-01
1.590000e+01	1.665992e-01
1.600000e+01	1.665374e-01
1.610000e+01	1.664804e-01
1.620000e+01	1.663362e-01
1.630000e+01	1.662381e-01
1.640000e+01	1.661160e-01
1.650000e+01	1.661355e-01
1.660000e+01	1.661717e-01
1.670000e+01	1.662794e-01
1.680000e+01	1.664339e-01
1.690000e+01	1.665825e-01
1.700000e+01	1.666342e-01
1.710000e+01	1.667117e-01
1.720000e+01	1.668179e-01
1.730000e+01	1.668812e-01
1.740000e+01	1.669071e-01
1.750000e+01	1.668946e-01
1.760000e+01	1.668272e-01
1.770000e+01	1.668633e-01
1.780000e+01	1.667206e-01
1.790000e+01	1.665362e-01
1.800000e+01	1.663667e-01
1.810000e+01	1.661511e-01
1.820000e+01	1.659540e-01
1.830000e+01	1.658139e-01
1.840000e+01	1.657296e-01
1.850000e+01	1.656475e-01
1.860000e+01	1.655943e-01
1.870000e+01	1.656255e-01
1.880000e+01	1.656134e-01
1.890000e+01	1.655117e-01
1.900000e+01	1.655249e-01
1.910000e+01	1.654551e-01
1.920000e+01	1.651786e-01
1.930000e+01	1.648243e-01
1.940000e+01	1.645762e-01
1.950000e+01	1.642840e-01
1.960000e+01	1.640062e-01
1.970000e+01	1.637888e-01
1.980000e+01	1.635301e-01
1.990000e+01	1.632855e-01
2.000000e+01	1.630844e-01
2.010000e+01	1.628880e-01
2.020000e+01	1.626319e-01
2.030000e+01	1.623874e-01
2.040000e+01	1.622750e-01
2.050000e+01	1.623101e-01
2.060000e+01	1.623543e-01
2.070000e+01	1.623517e-01
2.080000e+01	1.622058e-01
2.090000e+01	1.620836e-01
2.100000e+01	1.620020e-01
2.110000e+01	1.619059e-01
2.120000e+01	1.618597e-01
2.130000e+01	1.618900e-01
2.140000e+01	1.619389e-01
2.150000e+01	1.619902e-01
2.160000e+01	1.619102e-01
2.170000e+01	1.618280e-01
2.180000e+01	1.618693e-01
2.190000e+01	1.619414e-01
2.200000e+01	1.618969e-01
2.210000e+01	1.619611e-01
2.220000e+01	1.619743e-01
2.230000e+01	1.620983e-01
2.240000e+01	1.623405e-01
2.250000e+01	1.625976e-01
2.260000e+01	1.629112e-01
2.270000e+01	1.632409e-01
2.280000e+01	1.635285e-01
2.290000e+01	1.636172e-01
2.300000e+01	1.636514e-01
2.310000e+01	1.639196e-01
2.320000e+01	1.642498e-01
2.330000e+01	1.644444e-01
2.340000e+01	1.645187e-01
2.350000e+01	1.647830e-01
2.360000e+01	1.648701e-01
2.370000e+01	1.648415e-01
2.380000e+01	1.647231e-01
2.390000e+01	1.646275e-01
2.400000e+01	1.645532e-01
2.410000e+01	1.643898e-01
2.420000e+01	1.642942e-01
2.430000e+01	1.641606e-01
2.440000e+01	1.640449e-01
2.450000e+01	1.639735e-01
2.460000e+01	1.638902e-01
2.470000e+01	1.638999e-01
2.480000e+01	1.638664e-01
2.490000e+01	1.640188e-01
2.500000e+01	1.645065e-01
2.510000e+01	1.646205e-01
2.520000e+01	1.646564e-01
2.530000e+01	1.645807e-01
2.540000e+01	1.646158e-01
2.550000e+01	1.648497e-01
2.560000e+01	1.650305e-01
2.570000e+01	1.652921e-01
2.580000e+01	1.656761e-01
2.590000e+01	1.663296e-01
2.600000e+01	1.668092e-01
2.610000e+01	1.670055e-01
2.620000e+01	1.672917e-01
2.630000e+01	1.674723e-01
2.640000e+01	1.676149e-01
2.650000e+01	1.678905e-01
2.660000e+01	1.680170e-01
2.670000e+01	1.680779e-01
2.680000e+01	1.679270e-01
2.690000e+01	1.678848e-01
2.700000e+01	1.680440e-01
2.710000e+01	1.683738e-01
2.720000e+01	1.686425e-01
2.730000e+01	1.689171e-01
2.740000e+01	1.689880e-01
2.750000e+01	1.688561e-01
2.760000e+01	1.689251e-01
2.770000e+01	1.692918e-01
2.780000e+01	1.699680e-01
2.790000e+01	1.708822e-01
2.800000e+01	1.716570e-01
2.810000e+01	1.715863e-01
2.820000e+01	1.713039e-01
2.830000e+01	1.709327e-01
2.840000e+01	1.704241e-01
2.850000e+01	1.702370e-01
2.860000e+01	1.704456e-01
2.870000e+01	1.707948e-01
2.880000e+01	1.711955e-01
2.890000e+01	1.710898e-01
2.900000e+01	1.705990e-01
2.910000e+01	1.716451e-01
2.920000e+01	1.732473e-01
2.930000e+01	1.736992e-01
2.940000e+01	1.740373e-01
2.950000e+01	1.731904e-01
2.960000e+01	1.722702e-01
2.970000e+01	1.717979e-01
2.980000e+01	1.716741e-01
