#header: N=2	 eta=0.290000	TIME_MAX=30	TERM_TIME=20000	TEMP=0.681903
1.000000e-01	3.442282e-03
2.000000e-01	7.725093e-03
3.000000e-01	1.230730e-02
4.000000e-01	1.704217e-02
5.000000e-01	2.188953e-02
6.000000e-01	2.683833e-02
7.000000e-01	3.189207e-02
8.000000e-01	3.701014e-02
9.000000e-01	4.218401e-02
1.000000e+00	4.736527e-02
1.100000e+00	5.250193e-02
1.200000e+00	5.756050e-02
1.300000e+00	6.253632e-02
1.400000e+00	6.742216e-02
1.500000e+00	7.220517e-02
1.600000e+00	7.686939e-02
1.700000e+00	8.138686e-02
1.800000e+00	8.567249e-02
1.900000e+00	8.975400e-02
2.000000e+00	9.368234e-02
2.100000e+00	9.746478e-02
2.200000e+00	1.010516e-01
2.300000e+00	1.044530e-01
2.400000e+00	1.076660e-01
2.500000e+00	1.107296e-01
2.600000e+00	1.136100e-01
2.700000e+00	1.163244e-01
2.800000e+00	1.189637e-01
2.900000e+00	1.214578e-01
3.000000e+00	1.239039e-01
3.100000e+00	1.261446e-01
3.200000e+00	1.282684e-01
3.300000e+00	1.303323e-01
3.400000e+00	1.323124e-01
3.500000e+00	1.341543e-01
3.600000e+00	1.358980e-01
3.700000e+00	1.375210e-01
3.800000e+00	1.391463e-01
3.900000e+00	1.406872e-01
4.000000e+00	1.421006e-01
4.100000e+00	1.433730e-01
4.200000e+00	1.446107e-01
4.300000e+00	1.457374e-01
4.400000e+00	1.468405e-01
4.500000e+00	1.478923e-01
4.600000e+00	1.489265e-01
4.700000e+00	1.498947e-01
4.800000e+00	1.507821e-01
4.900000e+00	1.516229e-01
5.000000e+00	1.524147e-01
5.100000e+00	1.532120e-01
5.200000e+00	1.539272e-01
5.300000e+00	1.546636e-01
5.400000e+00	1.553268e-01
5.500000e+00	1.559542e-01
5.600000e+00	1.566010e-01
5.700000e+00	1.572127e-01
5.800000e+00	1.577145e-01
5.900000e+00	1.581801e-01
6.000000e+00	1.587257e-01
6.100000e+00	1.592789e-01
6.200000e+00	1.597696e-01
6.300000e+00	1.601402e-01
6.400000e+00	1.605243e-01
6.500000e+00	1.609097e-01
6.600000e+00	1.612950e-01
6.700000e+00	1.616774e-01
6.800000e+00	1.619835e-01
6.900000e+00	1.622951e-01
7.000000e+00	1.627290e-01
7.100000e+00	1.630426e-01
7.200000e+00	1.632336e-01
7.300000e+00	1.634269e-01
7.400000e+00	1.636359e-01
7.500000e+00	1.638085e-01
7.600000e+00	1.639077e-01
7.700000e+00	1.639879e-01
7.800000e+00	1.641069e-01
7.900000e+00	1.642900e-01
8.000000e+00	1.644837e-01
8.100000e+00	1.646232e-01
8.200000e+00	1.647270e-01
8.300000e+00	1.648074e-01
8.400000e+00	1.649199e-01
8.500000e+00	1.650128e-01
8.600000e+00	1.651102e-01
8.700000e+00	1.652131e-01
8.800000e+00	1.653003e-01
8.900000e+00	1.653630e-01
9.000000e+00	1.653325e-01
9.100000e+00	1.653546e-01
9.200000e+00	1.653742e-01
9.300000e+00	1.654325e-01
9.400000e+00	1.653493e-01
9.500000e+00	1.652058e-01
9.600000e+00	1.650806e-01
9.700000e+00	1.650816e-01
9.800000e+00	1.650566e-01
9.900000e+00	1.649364e-01
1.000000e+01	1.648468e-01
1.010000e+01	1.648726e-01
1.020000e+01	1.649895e-01
1.030000e+01	1.650847e-01
1.040000e+01	1.651725e-01
1.050000e+01	1.651706e-01
1.060000e+01	1.651967e-01
1.070000e+01	1.652687e-01
1.080000e+01	1.654087e-01
1.090000e+01	1.656722e-01
1.100000e+01	1.659079e-01
1.110000e+01	1.662591e-01
1.120000e+01	1.665661e-01
1.130000e+01	1.668761e-01
1.140000e+01	1.671471e-01
1.150000e+01	1.673292e-01
1.160000e+01	1.672498e-01
1.170000e+01	1.671745e-01
1.180000e+01	1.671765e-01
1.190000e+01	1.671879e-01
1.200000e+01	1.671103e-01
1.210000e+01	1.670819e-01
1.220000e+01	1.670552e-01
1.230000e+01	1.669574e-01
1.240000e+01	1.669474e-01
1.250000e+01	1.667506e-01
1.260000e+01	1.664739e-01
1.270000e+01	1.663056e-01
1.280000e+01	1.661536e-01
1.290000e+01	1.660453e-01
1.300000e+01	1.659359e-01
1.310000e+01	1.657714e-01
1.320000e+01	1.656266e-01
1.330000e+01	1.653986e-01
1.340000e+01	1.652029e-01
1.350000e+01	1.650593e-01
1.360000e+01	1.649498e-01
1.370000e+01	1.648076e-01
1.380000e+01	1.647198e-01
1.390000e+01	1.646248e-01
1.400000e+01	1.645307e-01
1.410000e+01	1.644538e-01
1.420000e+01	1.645126e-01
1.430000e+01	1.645269e-01
1.440000e+01	1.645713e-01
1.450000e+01	1.646057e-01
1.460000e+01	1.647032e-01
1.470000e+01	1.648208e-01
1.480000e+01	1.649209e-01
1.490000e+01	1.649778e-01
1.500000e+01	1.650613e-01
1.510000e+01	1.651799e-01
1.520000e+01	1.653205e-01
1.530000e+01	1.655548e-01
1.540000e+01	1.658028e-01
1.550000e+01	1.659813e-01
1.560000e+01	1.659396e-01
1.570000e+01	1.657871e-01
1.580000e+01	1.655788e-01
1.590000e+01	1.654641e-01
1.600000e+01	1.654059e-01
1.610000e+01	1.653513e-01
1.620000e+01	1.652892e-01
1.630000e+01	1.652395e-01
1.640000e+01	1.651007e-01
1.650000e+01	1.649989e-01
1.660000e+01	1.648259e-01
1.670000e+01	1.647409e-01
1.680000e+01	1.647544e-01
1.690000e+01	1.647209e-01
1.700000e+01	1.646650e-01
1.710000e+01	1.645532e-01
1.720000e+01	1.643598e-01
1.730000e+01	1.642875e-01
1.740000e+01	1.642457e-01
1.750000e+01	1.641908e-01
1.760000e+01	1.642264e-01
1.770000e+01	1.642361e-01
1.780000e+01	1.641738e-01
1.790000e+01	1.641879e-01
1.800000e+01	1.642676e-01
1.810000e+01	1.643364e-01
1.820000e+01	1.644089e-01
1.830000e+01	1.643978e-01
1.840000e+01	1.644349e-01
1.850000e+01	1.645895e-01
1.860000e+01	1.646257e-01
1.870000e+01	1.647073e-01
1.880000e+01	1.648463e-01
1.890000e+01	1.649093e-01
1.900000e+01	1.650354e-01
1.910000e+01	1.652106e-01
1.920000e+01	1.654235e-01
1.930000e+01	1.657004e-01
1.940000e+01	1.659608e-01
1.950000e+01	1.663128e-01
1.960000e+01	1.666900e-01
1.970000e+01	1.670724e-01
1.980000e+01	1.674006e-01
1.990000e+01	1.676318e-01
2.000000e+01	1.679529e-01
2.010000e+01	1.682350e-01
2.020000e+01	1.684563e-01
2.030000e+01	1.687484e-01
2.040000e+01	1.689915e-01
2.050000e+01	1.693408e-01
2.060000e+01	1.695730e-01
2.070000e+01	1.697916e-01
2.080000e+01	1.699243e-01
2.090000e+01	1.700273e-01
2.100000e+01	1.701011e-01
2.110000e+01	1.699170e-01
2.120000e+01	1.696949e-01
2.130000e+01	1.694698e-01
2.140000e+01	1.691927e-01
2.150000e+01	1.688855e-01
2.160000e+01	1.685359e-01
2.170000e+01	1.683203e-01
2.180000e+01	1.681827e-01
2.190000e+01	1.681061e-01
2.200000e+01	1.679236e-01
2.210000e+01	1.676296e-01
2.220000e+01	1.674599e-01
2.230000e+01	1.673554e-01
2.240000e+01	1.673406e-01
2.250000e+01	1.672484e-01
2.260000e+01	1.670020e-01
2.270000e+01	1.664421e-01
2.280000e+01	1.662424e-01
2.290000e+01	1.660045e-01
2.300000e+01	1.656447e-01
2.310000e+01	1.652622e-01
2.320000e+01	1.649145e-01
2.330000e+01	1.646247e-01
2.340000e+01	1.643155e-01
2.350000e+01	1.639194e-01
2.360000e+01	1.636735e-01
2.370000e+01	1.634669e-01
2.380000e+01	1.634524e-01
2.390000e+01	1.634390e-01
2.400000e+01	1.632830e-01
2.410000e+01	1.630325e-01
2.420000e+01	1.628908e-01
2.430000e+01	1.627891e-01
2.440000e+01	1.625826e-01
2.450000e+01	1.624588e-01
2.460000e+01	1.622372e-01
2.470000e+01	1.620682e-01
2.480000e+01	1.620304e-01
2.490000e+01	1.619867e-01
2.500000e+01	1.620349e-01
2.510000e+01	1.621747e-01
2.520000e+01	1.621723e-01
2.530000e+01	1.621096e-01
2.540000e+01	1.619251e-01
2.550000e+01	1.617586e-01
2.560000e+01	1.617888e-01
2.570000e+01	1.621863e-01
2.580000e+01	1.623362e-01
2.590000e+01	1.623749e-01
2.600000e+01	1.627241e-01
2.610000e+01	1.629900e-01
2.620000e+01	1.632720e-01
2.630000e+01	1.634421e-01
2.640000e+01	1.634965e-01
2.650000e+01	1.636742e-01
2.660000e+01	1.638855e-01
2.670000e+01	1.641999e-01
2.680000e+01	1.646087e-01
2.690000e+01	1.649038e-01
2.700000e+01	1.651692e-01
2.710000e+01	1.655301e-01
2.720000e+01	1.653666e-01
2.730000e+01	1.652853e-01
2.740000e+01	1.650441e-01
2.750000e+01	1.651240e-01
2.760000e+01	1.649884e-01
2.770000e+01	1.648202e-01
2.780000e+01	1.645067e-01
2.790000e+01	1.641680e-01
2.800000e+01	1.646824e-01
2.810000e+01	1.651741e-01
2.820000e+01	1.660509e-01
2.830000e+01	1.665888e-01
2.840000e+01	1.671933e-01
2.850000e+01	1.673213e-01
2.860000e+01	1.679461e-01
2.870000e+01	1.686005e-01
2.880000e+01	1.687813e-01
2.890000e+01	1.693441e-01
2.900000e+01	1.696776e-01
2.910000e+01	1.696982e-01
2.920000e+01	1.694854e-01
2.930000e+01	1.686490e-01
2.940000e+01	1.677167e-01
2.950000e+01	1.682428e-01
2.960000e+01	1.690537e-01
2.970000e+01	1.688150e-01
2.980000e+01	1.669221e-01
