#header: N=2	 eta=0.300000	TIME_MAX=30	TERM_TIME=20000	TEMP=0.663290
1.000000e-01	3.315374e-03
2.000000e-01	7.366248e-03
3.000000e-01	1.165815e-02
4.000000e-01	1.610259e-02
5.000000e-01	2.067549e-02
6.000000e-01	2.534372e-02
7.000000e-01	3.009146e-02
8.000000e-01	3.487764e-02
9.000000e-01	3.965659e-02
1.000000e+00	4.443442e-02
1.100000e+00	4.919287e-02
1.200000e+00	5.389913e-02
1.300000e+00	5.856451e-02
1.400000e+00	6.317272e-02
1.500000e+00	6.769228e-02
1.600000e+00	7.211192e-02
1.700000e+00	7.642790e-02
1.800000e+00	8.065418e-02
1.900000e+00	8.477874e-02
2.000000e+00	8.872979e-02
2.100000e+00	9.252619e-02
2.200000e+00	9.616352e-02
2.300000e+00	9.967227e-02
2.400000e+00	1.029929e-01
2.500000e+00	1.062325e-01
2.600000e+00	1.093470e-01
2.700000e+00	1.123114e-01
2.800000e+00	1.150747e-01
2.900000e+00	1.176998e-01
3.000000e+00	1.202889e-01
3.100000e+00	1.227896e-01
3.200000e+00	1.252610e-01
3.300000e+00	1.275432e-01
3.400000e+00	1.295959e-01
3.500000e+00	1.315733e-01
3.600000e+00	1.333986e-01
3.700000e+00	1.351257e-01
3.800000e+00	1.367913e-01
3.900000e+00	1.383529e-01
4.000000e+00	1.397665e-01
4.100000e+00	1.411931e-01
4.200000e+00	1.425383e-01
4.300000e+00	1.438560e-01
4.400000e+00	1.450752e-01
4.500000e+00	1.462360e-01
4.600000e+00	1.473438e-01
4.700000e+00	1.483750e-01
4.800000e+00	1.493341e-01
4.900000e+00	1.503025e-01
5.000000e+00	1.512327e-01
5.100000e+00	1.520007e-01
5.200000e+00	1.527771e-01
5.300000e+00	1.536612e-01
5.400000e+00	1.544612e-01
5.500000e+00	1.552641e-01
5.600000e+00	1.560205e-01
5.700000e+00	1.566814e-01
5.800000e+00	1.572639e-01
5.900000e+00	1.578271e-01
6.000000e+00	1.583258e-01
6.100000e+00	1.587528e-01
6.200000e+00	1.592246e-01
6.300000e+00	1.596820e-01
6.400000e+00	1.601723e-01
6.500000e+00	1.606229e-01
6.600000e+00	1.610495e-01
6.700000e+00	1.614137e-01
6.800000e+00	1.617380e-01
6.900000e+00	1.620147e-01
7.000000e+00	1.623580e-01
7.100000e+00	1.627312e-01
7.200000e+00	1.631410e-01
7.300000e+00	1.634493e-01
7.400000e+00	1.637595e-01
7.500000e+00	1.641747e-01
7.600000e+00	1.644912e-01
7.700000e+00	1.647862e-01
7.800000e+00	1.651450e-01
7.900000e+00	1.654833e-01
8.000000e+00	1.657845e-01
8.100000e+00	1.659999e-01
8.200000e+00	1.663245e-01
8.300000e+00	1.666890e-01
8.400000e+00	1.670030e-01
8.500000e+00	1.672634e-01
8.600000e+00	1.673919e-01
8.700000e+00	1.675282e-01
8.800000e+00	1.676362e-01
8.900000e+00	1.677034e-01
9.000000e+00	1.678024e-01
9.100000e+00	1.679100e-01
9.200000e+00	1.679280e-01
9.300000e+00	1.680438e-01
9.400000e+00	1.680215e-01
9.500000e+00	1.680221e-01
9.600000e+00	1.680228e-01
9.700000e+00	1.679227e-01
9.800000e+00	1.678864e-01
9.900000e+00	1.678411e-01
1.000000e+01	1.679216e-01
1.010000e+01	1.679792e-01
1.020000e+01	1.680535e-01
1.030000e+01	1.679994e-01
1.040000e+01	1.679447e-01
1.050000e+01	1.677625e-01
1.060000e+01	1.675601e-01
1.070000e+01	1.673252e-01
1.080000e+01	1.670491e-01
1.090000e+01	1.667201e-01
1.100000e+01	1.664294e-01
1.110000e+01	1.662222e-01
1.120000e+01	1.660127e-01
1.130000e+01	1.659841e-01
1.140000e+01	1.659340e-01
1.150000e+01	1.659793e-01
1.160000e+01	1.659914e-01
1.170000e+01	1.659528e-01
1.180000e+01	1.658690e-01
1.190000e+01	1.658291e-01
1.200000e+01	1.657124e-01
1.210000e+01	1.656037e-01
1.220000e+01	1.656289e-01
1.230000e+01	1.655101e-01
1.240000e+01	1.653005e-01
1.250000e+01	1.650796e-01
1.260000e+01	1.648986e-01
1.270000e+01	1.647869e-01
1.280000e+01	1.648441e-01
1.290000e+01	1.648427e-01
1.300000e+01	1.648292e-01
1.310000e+01	1.647365e-01
1.320000e+01	1.646376e-01
1.330000e+01	1.646665e-01
1.340000e+01	1.647379e-01
1.350000e+01	1.648220e-01
1.360000e+01	1.648896e-01
1.370000e+01	1.648209e-01
1.380000e+01	1.647945e-01
1.390000e+01	1.646918e-01
1.400000e+01	1.646806e-01
1.410000e+01	1.646768e-01
1.420000e+01	1.647100e-01
1.430000e+01	1.646131e-01
1.440000e+01	1.644955e-01
1.450000e+01	1.644106e-01
1.460000e+01	1.643155e-01
1.470000e+01	1.642926e-01
1.480000e+01	1.643236e-01
1.490000e+01	1.642715e-01
1.500000e+01	1.643124e-01
1.510000e+01	1.643597e-01
1.520000e+01	1.643320e-01
1.530000e+01	1.641848e-01
1.540000e+01	1.641189e-01
1.550000e+01	1.640300e-01
1.560000e+01	1.638946e-01
1.570000e+01	1.638713e-01
1.580000e+01	1.638772e-01
1.590000e+01	1.639483e-01
1.600000e+01	1.639141e-01
1.610000e+01	1.639653e-01
1.620000e+01	1.640187e-01
1.630000e+01	1.640248e-01
1.640000e+01	1.640632e-01
1.650000e+01	1.641210e-01
1.660000e+01	1.641911e-01
1.670000e+01	1.641956e-01
1.680000e+01	1.640544e-01
1.690000e+01	1.638843e-01
1.700000e+01	1.637601e-01
1.710000e+01	1.636691e-01
1.720000e+01	1.636299e-01
1.730000e+01	1.634520e-01
1.740000e+01	1.633784e-01
1.750000e+01	1.633998e-01
1.760000e+01	1.634737e-01
1.770000e+01	1.635326e-01
1.780000e+01	1.634176e-01
1.790000e+01	1.631942e-01
1.800000e+01	1.630191e-01
1.810000e+01	1.629176e-01
1.820000e+01	1.628794e-01
1.830000e+01	1.627917e-01
1.840000e+01	1.627913e-01
1.850000e+01	1.628150e-01
1.860000e+01	1.628961e-01
1.870000e+01	1.630982e-01
1.880000e+01	1.635288e-01
1.890000e+01	1.637303e-01
1.900000e+01	1.637904e-01
1.910000e+01	1.638087e-01
1.920000e+01	1.639397e-01
1.930000e+01	1.640887e-01
1.940000e+01	1.641726e-01
1.950000e+01	1.643327e-01
1.960000e+01	1.643689e-01
1.970000e+01	1.643534e-01
1.980000e+01	1.643282e-01
1.990000e+01	1.643264e-01
2.000000e+01	1.643379e-01
2.010000e+01	1.644115e-01
2.020000e+01	1.645410e-01
2.030000e+01	1.646937e-01
2.040000e+01	1.650952e-01
2.050000e+01	1.655252e-01
2.060000e+01	1.658685e-01
2.070000e+01	1.660937e-01
2.080000e+01	1.663742e-01
2.090000e+01	1.665334e-01
2.100000e+01	1.667229e-01
2.110000e+01	1.669969e-01
2.120000e+01	1.672217e-01
2.130000e+01	1.675498e-01
2.140000e+01	1.678473e-01
2.150000e+01	1.681458e-01
2.160000e+01	1.682937e-01
2.170000e+01	1.684557e-01
2.180000e+01	1.687120e-01
2.190000e+01	1.689616e-01
2.200000e+01	1.691611e-01
2.210000e+01	1.692277e-01
2.220000e+01	1.693387e-01
2.230000e+01	1.694559e-01
2.240000e+01	1.694905e-01
2.250000e+01	1.694498e-01
2.260000e+01	1.693346e-01
2.270000e+01	1.691672e-01
2.280000e+01	1.691351e-01
2.290000e+01	1.690797e-01
2.300000e+01	1.691056e-01
2.310000e+01	1.690249e-01
2.320000e+01	1.690430e-01
2.330000e+01	1.691367e-01
2.340000e+01	1.693836e-01
2.350000e+01	1.696190e-01
2.360000e+01	1.698130e-01
2.370000e+01	1.696078e-01
2.380000e+01	1.695448e-01
2.390000e+01	1.694327e-01
2.400000e+01	1.691931e-01
2.410000e+01	1.690200e-01
2.420000e+01	1.689794e-01
2.430000e+01	1.688572e-01
2.440000e+01	1.686842e-01
2.450000e+01	1.685907e-01
2.460000e+01	1.684516e-01
2.470000e+01	1.683469e-01
2.480000e+01	1.682311e-01
2.490000e+01	1.679798e-01
2.500000e+01	1.678488e-01
2.510000e+01	1.677353e-01
2.520000e+01	1.677300e-01
2.530000e+01	1.678966e-01
2.540000e+01	1.678997e-01
2.550000e+01	1.677228e-01
2.560000e+01	1.673270e-01
2.570000e+01	1.669924e-01
2.580000e+01	1.667231e-01
2.590000e+01	1.665908e-01
2.600000e+01	1.664990e-01
2.610000e+01	1.662129e-01
2.620000e+01	1.659104e-01
2.630000e+01	1.656050e-01
2.640000e+01	1.653527e-01
2.650000e+01	1.652711e-01
2.660000e+01	1.655172e-01
2.670000e+01	1.658240e-01
2.680000e+01	1.660800e-01
2.690000e+01	1.660506e-01
2.700000e+01	1.663367e-01
2.710000e+01	1.663560e-01
2.720000e+01	1.662854e-01
2.730000e+01	1.663431e-01
2.740000e+01	1.667326e-01
2.750000e+01	1.670846e-01
2.760000e+01	1.672393e-01
2.770000e+01	1.671083e-01
2.780000e+01	1.668416e-01
2.790000e+01	1.668822e-01
2.800000e+01	1.670342e-01
2.810000e+01	1.670153e-01
2.820000e+01	1.668356e-01
2.830000e+01	1.668913e-01
2.840000e+01	1.667582e-01
2.850000e+01	1.667009e-01
2.860000e+01	1.664914e-01
2.870000e+01	1.662673e-01
2.880000e+01	1.657291e-01
2.890000e+01	1.651664e-01
2.900000e+01	1.647201e-01
2.910000e+01	1.642779e-01
2.920000e+01	1.632359e-01
2.930000e+01	1.623636e-01
2.940000e+01	1.616906e-01
2.950000e+01	1.614966e-01
2.960000e+01	1.623995e-01
2.970000e+01	1.653603e-01
2.980000e+01	1.678803e-01
