#header: N=2	 eta=0.330000	TIME_MAX=30	TERM_TIME=20000	TEMP=0.641416
1.000000e-01	3.039227e-03
2.000000e-01	6.619976e-03
3.000000e-01	1.047423e-02
4.000000e-01	1.447894e-02
5.000000e-01	1.861909e-02
6.000000e-01	2.288537e-02
7.000000e-01	2.724744e-02
8.000000e-01	3.166786e-02
9.000000e-01	3.609729e-02
1.000000e+00	4.052841e-02
1.100000e+00	4.496494e-02
1.200000e+00	4.938437e-02
1.300000e+00	5.378117e-02
1.400000e+00	5.812777e-02
1.500000e+00	6.241954e-02
1.600000e+00	6.665338e-02
1.700000e+00	7.080751e-02
1.800000e+00	7.480687e-02
1.900000e+00	7.869490e-02
2.000000e+00	8.248169e-02
2.100000e+00	8.616317e-02
2.200000e+00	8.968278e-02
2.300000e+00	9.308646e-02
2.400000e+00	9.633800e-02
2.500000e+00	9.950734e-02
2.600000e+00	1.025572e-01
2.700000e+00	1.054920e-01
2.800000e+00	1.082780e-01
2.900000e+00	1.109617e-01
3.000000e+00	1.135321e-01
3.100000e+00	1.160441e-01
3.200000e+00	1.183798e-01
3.300000e+00	1.205621e-01
3.400000e+00	1.225983e-01
3.500000e+00	1.245725e-01
3.600000e+00	1.264347e-01
3.700000e+00	1.282409e-01
3.800000e+00	1.299172e-01
3.900000e+00	1.315380e-01
4.000000e+00	1.330484e-01
4.100000e+00	1.345588e-01
4.200000e+00	1.360988e-01
4.300000e+00	1.375814e-01
4.400000e+00	1.389833e-01
4.500000e+00	1.402486e-01
4.600000e+00	1.414453e-01
4.700000e+00	1.426074e-01
4.800000e+00	1.437690e-01
4.900000e+00	1.447682e-01
5.000000e+00	1.457602e-01
5.100000e+00	1.466945e-01
5.200000e+00	1.476560e-01
5.300000e+00	1.485186e-01
5.400000e+00	1.493786e-01
5.500000e+00	1.501602e-01
5.600000e+00	1.509516e-01
5.700000e+00	1.517422e-01
5.800000e+00	1.524897e-01
5.900000e+00	1.532231e-01
6.000000e+00	1.538912e-01
6.100000e+00	1.544927e-01
6.200000e+00	1.550815e-01
6.300000e+00	1.556233e-01
6.400000e+00	1.561626e-01
6.500000e+00	1.567337e-01
6.600000e+00	1.572703e-01
6.700000e+00	1.578286e-01
6.800000e+00	1.583695e-01
6.900000e+00	1.588610e-01
7.000000e+00	1.593789e-01
7.100000e+00	1.599051e-01
7.200000e+00	1.603643e-01
7.300000e+00	1.607834e-01
7.400000e+00	1.612483e-01
7.500000e+00	1.617681e-01
7.600000e+00	1.622037e-01
7.700000e+00	1.626345e-01
7.800000e+00	1.629702e-01
7.900000e+00	1.632555e-01
8.000000e+00	1.634517e-01
8.100000e+00	1.637005e-01
8.200000e+00	1.639715e-01
8.300000e+00	1.642855e-01
8.400000e+00	1.645402e-01
8.500000e+00	1.647586e-01
8.600000e+00	1.649264e-01
8.700000e+00	1.651392e-01
8.800000e+00	1.652982e-01
8.900000e+00	1.654585e-01
9.000000e+00	1.655442e-01
9.100000e+00	1.655415e-01
9.200000e+00	1.654944e-01
9.300000e+00	1.654789e-01
9.400000e+00	1.655418e-01
9.500000e+00	1.655261e-01
9.600000e+00	1.655432e-01
9.700000e+00	1.655297e-01
9.800000e+00	1.655598e-01
9.900000e+00	1.655115e-01
1.000000e+01	1.654909e-01
1.010000e+01	1.654841e-01
1.020000e+01	1.654456e-01
1.030000e+01	1.655124e-01
1.040000e+01	1.656122e-01
1.050000e+01	1.656274e-01
1.060000e+01	1.656355e-01
1.070000e+01	1.657029e-01
1.080000e+01	1.657247e-01
1.090000e+01	1.656958e-01
1.100000e+01	1.656360e-01
1.110000e+01	1.655822e-01
1.120000e+01	1.656497e-01
1.130000e+01	1.656996e-01
1.140000e+01	1.657962e-01
1.150000e+01	1.658374e-01
1.160000e+01	1.658684e-01
1.170000e+01	1.659602e-01
1.180000e+01	1.660127e-01
1.190000e+01	1.660332e-01
1.200000e+01	1.660777e-01
1.210000e+01	1.660953e-01
1.220000e+01	1.661902e-01
1.230000e+01	1.663177e-01
1.240000e+01	1.664370e-01
1.250000e+01	1.665876e-01
1.260000e+01	1.667511e-01
1.270000e+01	1.668677e-01
1.280000e+01	1.668376e-01
1.290000e+01	1.668066e-01
1.300000e+01	1.667521e-01
1.310000e+01	1.666529e-01
1.320000e+01	1.665263e-01
1.330000e+01	1.664150e-01
1.340000e+01	1.664044e-01
1.350000e+01	1.663954e-01
1.360000e+01	1.662699e-01
1.370000e+01	1.662518e-01
1.380000e+01	1.662444e-01
1.390000e+01	1.662211e-01
1.400000e+01	1.662003e-01
1.410000e+01	1.660812e-01
1.420000e+01	1.659337e-01
1.430000e+01	1.658380e-01
1.440000e+01	1.658131e-01
1.450000e+01	1.658688e-01
1.460000e+01	1.658413e-01
1.470000e+01	1.659396e-01
1.480000e+01	1.660161e-01
1.490000e+01	1.661115e-01
1.500000e+01	1.660574e-01
1.510000e+01	1.659371e-01
1.520000e+01	1.657737e-01
1.530000e+01	1.656637e-01
1.540000e+01	1.654933e-01
1.550000e+01	1.653109e-01
1.560000e+01	1.652227e-01
1.570000e+01	1.651864e-01
1.580000e+01	1.651981e-01
1.590000e+01	1.651086e-01
1.600000e+01	1.649091e-01
1.610000e+01	1.646292e-01
1.620000e+01	1.644004e-01
1.630000e+01	1.642920e-01
1.640000e+01	1.641510e-01
1.650000e+01	1.640440e-01
1.660000e+01	1.640301e-01
1.670000e+01	1.639924e-01
1.680000e+01	1.639520e-01
1.690000e+01	1.639290e-01
1.700000e+01	1.638502e-01
1.710000e+01	1.638311e-01
1.720000e+01	1.637731e-01
1.730000e+01	1.637792e-01
1.740000e+01	1.638360e-01
1.750000e+01	1.638737e-01
1.760000e+01	1.638817e-01
1.770000e+01	1.638482e-01
1.780000e+01	1.638484e-01
1.790000e+01	1.635987e-01
1.800000e+01	1.633484e-01
1.810000e+01	1.632384e-01
1.820000e+01	1.633067e-01
1.830000e+01	1.633713e-01
1.840000e+01	1.632972e-01
1.850000e+01	1.632442e-01
1.860000e+01	1.632934e-01
1.870000e+01	1.633151e-01
1.880000e+01	1.632467e-01
1.890000e+01	1.631575e-01
1.900000e+01	1.631165e-01
1.910000e+01	1.631396e-01
1.920000e+01	1.631828e-01
1.930000e+01	1.631985e-01
1.940000e+01	1.632616e-01
1.950000e+01	1.634099e-01
1.960000e+01	1.635738e-01
1.970000e+01	1.637372e-01
1.980000e+01	1.637548e-01
1.990000e+01	1.639114e-01
2.000000e+01	1.640032e-01
2.010000e+01	1.641146e-01
2.020000e+01	1.641523e-01
2.030000e+01	1.640706e-01
2.040000e+01	1.642053e-01
2.050000e+01	1.643184e-01
2.060000e+01	1.644543e-01
2.070000e+01	1.646304e-01
2.080000e+01	1.647550e-01
2.090000e+01	1.650786e-01
2.100000e+01	1.655274e-01
2.110000e+01	1.660397e-01
2.120000e+01	1.664780e-01
2.130000e+01	1.666841e-01
2.140000e+01	1.668739e-01
2.150000e+01	1.669913e-01
2.160000e+01	1.671388e-01
2.170000e+01	1.671553e-01
2.180000e+01	1.672328e-01
2.190000e+01	1.673379e-01
2.200000e+01	1.675015e-01
2.210000e+01	1.677464e-01
2.220000e+01	1.678560e-01
2.230000e+01	1.680077e-01
2.240000e+01	1.681733e-01
2.250000e+01	1.686126e-01
2.260000e+01	1.689470e-01
2.270000e+01	1.691826e-01
2.280000e+01	1.692647e-01
2.290000e+01	1.693693e-01
2.300000e+01	1.694444e-01
2.310000e+01	1.695506e-01
2.320000e+01	1.695363e-01
2.330000e+01	1.695046e-01
2.340000e+01	1.695104e-01
2.350000e+01	1.695906e-01
2.360000e+01	1.696410e-01
2.370000e+01	1.695509e-01
2.380000e+01	1.696548e-01
2.390000e+01	1.699687e-01
2.400000e+01	1.699645e-01
2.410000e+01	1.699542e-01
2.420000e+01	1.699985e-01
2.430000e+01	1.700058e-01
2.440000e+01	1.699907e-01
2.450000e+01	1.698480e-01
2.460000e+01	1.696407e-01
2.470000e+01	1.695482e-01
2.480000e+01	1.692956e-01
2.490000e+01	1.690488e-01
2.500000e+01	1.687423e-01
2.510000e+01	1.683028e-01
2.520000e+01	1.679273e-01
2.530000e+01	1.677042e-01
2.540000e+01	1.676109e-01
2.550000e+01	1.675458e-01
2.560000e+01	1.674814e-01
2.570000e+01	1.672205e-01
2.580000e+01	1.669780e-01
2.590000e+01	1.669597e-01
2.600000e+01	1.668554e-01
2.610000e+01	1.667256e-01
2.620000e+01	1.667179e-01
2.630000e+01	1.666446e-01
2.640000e+01	1.662094e-01
2.650000e+01	1.659260e-01
2.660000e+01	1.655753e-01
2.670000e+01	1.652171e-01
2.680000e+01	1.647962e-01
2.690000e+01	1.645132e-01
2.700000e+01	1.642151e-01
2.710000e+01	1.637707e-01
2.720000e+01	1.633692e-01
2.730000e+01	1.627143e-01
2.740000e+01	1.620551e-01
2.750000e+01	1.617486e-01
2.760000e+01	1.613484e-01
2.770000e+01	1.608924e-01
2.780000e+01	1.608521e-01
2.790000e+01	1.607195e-01
2.800000e+01	1.604603e-01
2.810000e+01	1.601283e-01
2.820000e+01	1.593314e-01
2.830000e+01	1.588867e-01
2.840000e+01	1.583338e-01
2.850000e+01	1.582675e-01
2.860000e+01	1.585483e-01
2.870000e+01	1.581725e-01
2.880000e+01	1.585137e-01
2.890000e+01	1.589951e-01
2.900000e+01	1.588816e-01
2.910000e+01	1.586070e-01
2.920000e+01	1.589933e-01
2.930000e+01	1.590130e-01
2.940000e+01	1.594035e-01
2.950000e+01	1.596302e-01
2.960000e+01	1.596704e-01
2.970000e+01	1.601820e-01
2.980000e+01	1.631858e-01
