#header: N=2	 eta=0.360000	TIME_MAX=30	TERM_TIME=20000	TEMP=0.664074
1.000000e-01	2.917162e-03
2.000000e-01	6.206456e-03
3.000000e-01	9.741469e-03
4.000000e-01	1.341660e-02
5.000000e-01	1.716335e-02
6.000000e-01	2.099135e-02
7.000000e-01	2.485745e-02
8.000000e-01	2.875496e-02
9.000000e-01	3.263993e-02
1.000000e+00	3.654582e-02
1.100000e+00	4.046365e-02
1.200000e+00	4.435942e-02
1.300000e+00	4.818648e-02
1.400000e+00	5.196518e-02
1.500000e+00	5.569754e-02
1.600000e+00	5.939568e-02
1.700000e+00	6.295654e-02
1.800000e+00	6.648250e-02
1.900000e+00	6.993792e-02
2.000000e+00	7.329773e-02
2.100000e+00	7.656204e-02
2.200000e+00	7.973563e-02
2.300000e+00	8.282487e-02
2.400000e+00	8.582821e-02
2.500000e+00	8.872668e-02
2.600000e+00	9.153917e-02
2.700000e+00	9.426144e-02
2.800000e+00	9.687446e-02
2.900000e+00	9.941389e-02
3.000000e+00	1.018816e-01
3.100000e+00	1.042637e-01
3.200000e+00	1.065671e-01
3.300000e+00	1.088134e-01
3.400000e+00	1.109894e-01
3.500000e+00	1.130267e-01
3.600000e+00	1.150185e-01
3.700000e+00	1.169310e-01
3.800000e+00	1.187322e-01
3.900000e+00	1.204547e-01
4.000000e+00	1.221311e-01
4.100000e+00	1.237736e-01
4.200000e+00	1.253594e-01
4.300000e+00	1.268945e-01
4.400000e+00	1.284210e-01
4.500000e+00	1.299050e-01
4.600000e+00	1.312795e-01
4.700000e+00	1.326683e-01
4.800000e+00	1.339959e-01
4.900000e+00	1.352583e-01
5.000000e+00	1.364369e-01
5.100000e+00	1.376060e-01
5.200000e+00	1.388294e-01
5.300000e+00	1.399879e-01
5.400000e+00	1.410950e-01
5.500000e+00	1.421243e-01
5.600000e+00	1.430447e-01
5.700000e+00	1.440275e-01
5.800000e+00	1.449560e-01
5.900000e+00	1.458742e-01
6.000000e+00	1.468828e-01
6.100000e+00	1.478046e-01
6.200000e+00	1.486423e-01
6.300000e+00	1.494659e-01
6.400000e+00	1.503542e-01
6.500000e+00	1.513035e-01
6.600000e+00	1.521571e-01
6.700000e+00	1.530346e-01
6.800000e+00	1.538287e-01
6.900000e+00	1.546329e-01
7.000000e+00	1.553124e-01
7.100000e+00	1.559154e-01
7.200000e+00	1.564918e-01
7.300000e+00	1.570525e-01
7.400000e+00	1.575901e-01
7.500000e+00	1.579865e-01
7.600000e+00	1.583801e-01
7.700000e+00	1.587878e-01
7.800000e+00	1.591475e-01
7.900000e+00	1.594118e-01
8.000000e+00	1.597846e-01
8.100000e+00	1.600939e-01
8.200000e+00	1.603964e-01
8.300000e+00	1.606835e-01
8.400000e+00	1.609545e-01
8.500000e+00	1.612094e-01
8.600000e+00	1.615316e-01
8.700000e+00	1.618512e-01
8.800000e+00	1.621005e-01
8.900000e+00	1.623858e-01
9.000000e+00	1.626011e-01
9.100000e+00	1.627972e-01
9.200000e+00	1.629886e-01
9.300000e+00	1.631300e-01
9.400000e+00	1.632128e-01
9.500000e+00	1.632339e-01
9.600000e+00	1.632679e-01
9.700000e+00	1.633862e-01
9.800000e+00	1.635544e-01
9.900000e+00	1.636949e-01
1.000000e+01	1.638565e-01
1.010000e+01	1.640719e-01
1.020000e+01	1.642789e-01
1.030000e+01	1.644747e-01
1.040000e+01	1.646516e-01
1.050000e+01	1.647357e-01
1.060000e+01	1.647131e-01
1.070000e+01	1.647464e-01
1.080000e+01	1.648039e-01
1.090000e+01	1.648555e-01
1.100000e+01	1.648945e-01
1.110000e+01	1.648736e-01
1.120000e+01	1.648169e-01
1.130000e+01	1.647512e-01
1.140000e+01	1.646736e-01
1.150000e+01	1.645844e-01
1.160000e+01	1.645955e-01
1.170000e+01	1.647093e-01
1.180000e+01	1.648376e-01
1.190000e+01	1.649669e-01
1.200000e+01	1.650554e-01
1.210000e+01	1.650547e-01
1.220000e+01	1.650776e-01
1.230000e+01	1.650216e-01
1.240000e+01	1.649191e-01
1.250000e+01	1.650150e-01
1.260000e+01	1.651923e-01
1.270000e+01	1.652054e-01
1.280000e+01	1.652150e-01
1.290000e+01	1.653058e-01
1.300000e+01	1.654566e-01
1.310000e+01	1.656442e-01
1.320000e+01	1.657455e-01
1.330000e+01	1.658017e-01
1.340000e+01	1.658018e-01
1.350000e+01	1.657746e-01
1.360000e+01	1.658403e-01
1.370000e+01	1.659041e-01
1.380000e+01	1.660462e-01
1.390000e+01	1.662137e-01
1.400000e+01	1.663685e-01
1.410000e+01	1.665329e-01
1.420000e+01	1.666866e-01
1.430000e+01	1.667363e-01
1.440000e+01	1.667413e-01
1.450000e+01	1.668062e-01
1.460000e+01	1.668556e-01
1.470000e+01	1.669819e-01
1.480000e+01	1.670926e-01
1.490000e+01	1.671973e-01
1.500000e+01	1.673125e-01
1.510000e+01	1.674223e-01
1.520000e+01	1.675541e-01
1.530000e+01	1.676888e-01
1.540000e+01	1.676818e-01
1.550000e+01	1.676633e-01
1.560000e+01	1.676167e-01
1.570000e+01	1.675962e-01
1.580000e+01	1.675360e-01
1.590000e+01	1.674820e-01
1.600000e+01	1.673544e-01
1.610000e+01	1.672178e-01
1.620000e+01	1.671178e-01
1.630000e+01	1.668908e-01
1.640000e+01	1.667014e-01
1.650000e+01	1.665090e-01
1.660000e+01	1.664065e-01
1.670000e+01	1.662705e-01
1.680000e+01	1.661498e-01
1.690000e+01	1.660176e-01
1.700000e+01	1.658028e-01
1.710000e+01	1.656537e-01
1.720000e+01	1.655184e-01
1.730000e+01	1.654100e-01
1.740000e+01	1.653180e-01
1.750000e+01	1.651886e-01
1.760000e+01	1.651317e-01
1.770000e+01	1.651383e-01
1.780000e+01	1.651917e-01
1.790000e+01	1.651943e-01
1.800000e+01	1.652767e-01
1.810000e+01	1.653497e-01
1.820000e+01	1.655369e-01
1.830000e+01	1.657244e-01
1.840000e+01	1.660085e-01
1.850000e+01	1.662345e-01
1.860000e+01	1.665064e-01
1.870000e+01	1.667542e-01
1.880000e+01	1.669770e-01
1.890000e+01	1.671941e-01
1.900000e+01	1.674404e-01
1.910000e+01	1.677368e-01
1.920000e+01	1.680801e-01
1.930000e+01	1.683816e-01
1.940000e+01	1.685854e-01
1.950000e+01	1.688109e-01
1.960000e+01	1.689092e-01
1.970000e+01	1.690031e-01
1.980000e+01	1.691878e-01
1.990000e+01	1.692301e-01
2.000000e+01	1.692376e-01
2.010000e+01	1.692067e-01
2.020000e+01	1.691490e-01
2.030000e+01	1.690877e-01
2.040000e+01	1.690235e-01
2.050000e+01	1.689823e-01
2.060000e+01	1.689622e-01
2.070000e+01	1.689305e-01
2.080000e+01	1.689581e-01
2.090000e+01	1.688874e-01
2.100000e+01	1.688232e-01
2.110000e+01	1.686542e-01
2.120000e+01	1.684409e-01
2.130000e+01	1.680913e-01
2.140000e+01	1.678662e-01
2.150000e+01	1.675141e-01
2.160000e+01	1.671814e-01
2.170000e+01	1.669119e-01
2.180000e+01	1.665870e-01
2.190000e+01	1.664127e-01
2.200000e+01	1.662493e-01
2.210000e+01	1.662976e-01
2.220000e+01	1.663685e-01
2.230000e+01	1.664369e-01
2.240000e+01	1.665957e-01
2.250000e+01	1.667422e-01
2.260000e+01	1.669143e-01
2.270000e+01	1.669182e-01
2.280000e+01	1.669355e-01
2.290000e+01	1.669570e-01
2.300000e+01	1.670548e-01
2.310000e+01	1.670944e-01
2.320000e+01	1.670900e-01
2.330000e+01	1.673247e-01
2.340000e+01	1.676001e-01
2.350000e+01	1.676996e-01
2.360000e+01	1.678714e-01
2.370000e+01	1.679285e-01
2.380000e+01	1.679475e-01
2.390000e+01	1.680171e-01
2.400000e+01	1.680750e-01
2.410000e+01	1.681802e-01
2.420000e+01	1.683019e-01
2.430000e+01	1.684084e-01
2.440000e+01	1.685554e-01
2.450000e+01	1.687126e-01
2.460000e+01	1.689154e-01
2.470000e+01	1.689761e-01
2.480000e+01	1.691938e-01
2.490000e+01	1.694024e-01
2.500000e+01	1.694721e-01
2.510000e+01	1.695124e-01
2.520000e+01	1.695891e-01
2.530000e+01	1.695870e-01
2.540000e+01	1.695671e-01
2.550000e+01	1.693874e-01
2.560000e+01	1.691490e-01
2.570000e+01	1.687655e-01
2.580000e+01	1.682493e-01
2.590000e+01	1.679516e-01
2.600000e+01	1.674174e-01
2.610000e+01	1.666859e-01
2.620000e+01	1.661355e-01
2.630000e+01	1.656445e-01
2.640000e+01	1.649797e-01
2.650000e+01	1.645018e-01
2.660000e+01	1.642581e-01
2.670000e+01	1.640892e-01
2.680000e+01	1.641506e-01
2.690000e+01	1.641506e-01
2.700000e+01	1.645223e-01
2.710000e+01	1.646887e-01
2.720000e+01	1.648441e-01
2.730000e+01	1.648040e-01
2.740000e+01	1.648353e-01
2.750000e+01	1.650494e-01
2.760000e+01	1.652168e-01
2.770000e+01	1.649929e-01
2.780000e+01	1.646674e-01
2.790000e+01	1.643949e-01
2.800000e+01	1.642983e-01
2.810000e+01	1.643415e-01
2.820000e+01	1.647961e-01
2.830000e+01	1.651553e-01
2.840000e+01	1.656190e-01
2.850000e+01	1.666279e-01
2.860000e+01	1.672906e-01
2.870000e+01	1.676452e-01
2.880000e+01	1.676486e-01
2.890000e+01	1.676872e-01
2.900000e+01	1.676596e-01
2.910000e+01	1.670957e-01
2.920000e+01	1.667983e-01
2.930000e+01	1.667620e-01
2.940000e+01	1.673974e-01
2.950000e+01	1.682141e-01
2.960000e+01	1.680718e-01
2.970000e+01	1.673055e-01
2.980000e+01	1.672867e-01
