#header: N=2	 eta=0.370000	TIME_MAX=30	TERM_TIME=20000	TEMP=0.685208
1.000000e-01	2.896027e-03
2.000000e-01	6.150564e-03
3.000000e-01	9.648815e-03
4.000000e-01	1.332070e-02
5.000000e-01	1.714015e-02
6.000000e-01	2.109136e-02
7.000000e-01	2.514869e-02
8.000000e-01	2.925303e-02
9.000000e-01	3.339760e-02
1.000000e+00	3.752510e-02
1.100000e+00	4.164078e-02
1.200000e+00	4.574767e-02
1.300000e+00	4.981681e-02
1.400000e+00	5.382207e-02
1.500000e+00	5.777973e-02
1.600000e+00	6.167699e-02
1.700000e+00	6.547896e-02
1.800000e+00	6.917367e-02
1.900000e+00	7.279715e-02
2.000000e+00	7.627366e-02
2.100000e+00	7.968091e-02
2.200000e+00	8.298526e-02
2.300000e+00	8.617900e-02
2.400000e+00	8.920912e-02
2.500000e+00	9.214668e-02
2.600000e+00	9.498821e-02
2.700000e+00	9.782586e-02
2.800000e+00	1.005456e-01
2.900000e+00	1.031851e-01
3.000000e+00	1.056473e-01
3.100000e+00	1.080113e-01
3.200000e+00	1.102840e-01
3.300000e+00	1.125284e-01
3.400000e+00	1.147467e-01
3.500000e+00	1.168363e-01
3.600000e+00	1.188075e-01
3.700000e+00	1.206563e-01
3.800000e+00	1.223833e-01
3.900000e+00	1.240397e-01
4.000000e+00	1.255824e-01
4.100000e+00	1.270264e-01
4.200000e+00	1.283748e-01
4.300000e+00	1.296436e-01
4.400000e+00	1.308234e-01
4.500000e+00	1.320619e-01
4.600000e+00	1.332330e-01
4.700000e+00	1.343236e-01
4.800000e+00	1.354092e-01
4.900000e+00	1.365018e-01
5.000000e+00	1.376444e-01
5.100000e+00	1.387314e-01
5.200000e+00	1.397328e-01
5.300000e+00	1.407042e-01
5.400000e+00	1.416591e-01
5.500000e+00	1.425978e-01
5.600000e+00	1.435325e-01
5.700000e+00	1.444569e-01
5.800000e+00	1.453569e-01
5.900000e+00	1.462411e-01
6.000000e+00	1.470924e-01
6.100000e+00	1.478824e-01
6.200000e+00	1.486078e-01
6.300000e+00	1.493598e-01
6.400000e+00	1.500584e-01
6.500000e+00	1.506786e-01
6.600000e+00	1.513719e-01
6.700000e+00	1.519950e-01
6.800000e+00	1.526156e-01
6.900000e+00	1.532079e-01
7.000000e+00	1.537811e-01
7.100000e+00	1.543029e-01
7.200000e+00	1.547763e-01
7.300000e+00	1.552286e-01
7.400000e+00	1.556534e-01
7.500000e+00	1.560632e-01
7.600000e+00	1.564770e-01
7.700000e+00	1.568204e-01
7.800000e+00	1.571734e-01
7.900000e+00	1.575284e-01
8.000000e+00	1.578657e-01
8.100000e+00	1.582433e-01
8.200000e+00	1.585812e-01
8.300000e+00	1.589449e-01
8.400000e+00	1.592940e-01
8.500000e+00	1.595865e-01
8.600000e+00	1.598731e-01
8.700000e+00	1.601577e-01
8.800000e+00	1.604696e-01
8.900000e+00	1.607779e-01
9.000000e+00	1.611241e-01
9.100000e+00	1.614488e-01
9.200000e+00	1.617623e-01
9.300000e+00	1.620714e-01
9.400000e+00	1.623056e-01
9.500000e+00	1.625634e-01
9.600000e+00	1.628453e-01
9.700000e+00	1.631633e-01
9.800000e+00	1.635825e-01
9.900000e+00	1.638439e-01
1.000000e+01	1.639996e-01
1.010000e+01	1.642013e-01
1.020000e+01	1.644006e-01
1.030000e+01	1.645361e-01
1.040000e+01	1.646706e-01
1.050000e+01	1.647942e-01
1.060000e+01	1.649268e-01
1.070000e+01	1.651703e-01
1.080000e+01	1.653874e-01
1.090000e+01	1.655146e-01
1.100000e+01	1.655839e-01
1.110000e+01	1.656884e-01
1.120000e+01	1.656946e-01
1.130000e+01	1.657589e-01
1.140000e+01	1.657923e-01
1.150000e+01	1.658742e-01
1.160000e+01	1.658832e-01
1.170000e+01	1.658530e-01
1.180000e+01	1.658408e-01
1.190000e+01	1.659129e-01
1.200000e+01	1.658676e-01
1.210000e+01	1.656747e-01
1.220000e+01	1.655222e-01
1.230000e+01	1.653658e-01
1.240000e+01	1.652948e-01
1.250000e+01	1.652235e-01
1.260000e+01	1.651742e-01
1.270000e+01	1.650689e-01
1.280000e+01	1.649139e-01
1.290000e+01	1.647130e-01
1.300000e+01	1.645139e-01
1.310000e+01	1.643265e-01
1.320000e+01	1.642000e-01
1.330000e+01	1.641181e-01
1.340000e+01	1.641044e-01
1.350000e+01	1.641267e-01
1.360000e+01	1.640490e-01
1.370000e+01	1.639299e-01
1.380000e+01	1.636988e-01
1.390000e+01	1.635799e-01
1.400000e+01	1.635130e-01
1.410000e+01	1.633487e-01
1.420000e+01	1.632972e-01
1.430000e+01	1.633599e-01
1.440000e+01	1.634332e-01
1.450000e+01	1.634706e-01
1.460000e+01	1.634678e-01
1.470000e+01	1.635459e-01
1.480000e+01	1.635950e-01
1.490000e+01	1.636924e-01
1.500000e+01	1.637220e-01
1.510000e+01	1.637907e-01
1.520000e+01	1.638146e-01
1.530000e+01	1.639654e-01
1.540000e+01	1.640598e-01
1.550000e+01	1.641961e-01
1.560000e+01	1.643508e-01
1.570000e+01	1.644753e-01
1.580000e+01	1.644530e-01
1.590000e+01	1.644759e-01
1.600000e+01	1.644324e-01
1.610000e+01	1.644803e-01
1.620000e+01	1.644995e-01
1.630000e+01	1.645367e-01
1.640000e+01	1.646475e-01
1.650000e+01	1.647259e-01
1.660000e+01	1.647710e-01
1.670000e+01	1.649351e-01
1.680000e+01	1.650194e-01
1.690000e+01	1.650739e-01
1.700000e+01	1.651430e-01
1.710000e+01	1.651779e-01
1.720000e+01	1.651390e-01
1.730000e+01	1.651383e-01
1.740000e+01	1.652066e-01
1.750000e+01	1.653789e-01
1.760000e+01	1.655140e-01
1.770000e+01	1.655969e-01
1.780000e+01	1.656805e-01
1.790000e+01	1.656391e-01
1.800000e+01	1.654452e-01
1.810000e+01	1.652695e-01
1.820000e+01	1.652906e-01
1.830000e+01	1.653361e-01
1.840000e+01	1.652801e-01
1.850000e+01	1.652356e-01
1.860000e+01	1.651006e-01
1.870000e+01	1.650850e-01
1.880000e+01	1.651759e-01
1.890000e+01	1.651806e-01
1.900000e+01	1.652314e-01
1.910000e+01	1.652141e-01
1.920000e+01	1.652953e-01
1.930000e+01	1.653715e-01
1.940000e+01	1.654097e-01
1.950000e+01	1.654820e-01
1.960000e+01	1.655365e-01
1.970000e+01	1.655603e-01
1.980000e+01	1.655485e-01
1.990000e+01	1.654695e-01
2.000000e+01	1.653422e-01
2.010000e+01	1.651692e-01
2.020000e+01	1.650167e-01
2.030000e+01	1.649657e-01
2.040000e+01	1.650418e-01
2.050000e+01	1.652144e-01
2.060000e+01	1.653522e-01
2.070000e+01	1.653418e-01
2.080000e+01	1.654274e-01
2.090000e+01	1.653806e-01
2.100000e+01	1.653942e-01
2.110000e+01	1.655056e-01
2.120000e+01	1.654717e-01
2.130000e+01	1.654670e-01
2.140000e+01	1.653734e-01
2.150000e+01	1.652664e-01
2.160000e+01	1.651021e-01
2.170000e+01	1.651341e-01
2.180000e+01	1.651890e-01
2.190000e+01	1.653175e-01
2.200000e+01	1.652918e-01
2.210000e+01	1.653868e-01
2.220000e+01	1.653913e-01
2.230000e+01	1.652943e-01
2.240000e+01	1.652972e-01
2.250000e+01	1.652675e-01
2.260000e+01	1.652822e-01
2.270000e+01	1.653127e-01
2.280000e+01	1.650683e-01
2.290000e+01	1.647580e-01
2.300000e+01	1.646050e-01
2.310000e+01	1.645830e-01
2.320000e+01	1.646785e-01
2.330000e+01	1.649102e-01
2.340000e+01	1.649567e-01
2.350000e+01	1.650155e-01
2.360000e+01	1.652067e-01
2.370000e+01	1.653264e-01
2.380000e+01	1.654247e-01
2.390000e+01	1.655747e-01
2.400000e+01	1.656552e-01
2.410000e+01	1.655489e-01
2.420000e+01	1.652423e-01
2.430000e+01	1.650010e-01
2.440000e+01	1.646897e-01
2.450000e+01	1.645701e-01
2.460000e+01	1.644442e-01
2.470000e+01	1.642847e-01
2.480000e+01	1.642216e-01
2.490000e+01	1.642924e-01
2.500000e+01	1.645085e-01
2.510000e+01	1.645587e-01
2.520000e+01	1.646559e-01
2.530000e+01	1.647127e-01
2.540000e+01	1.645858e-01
2.550000e+01	1.645348e-01
2.560000e+01	1.644629e-01
2.570000e+01	1.643010e-01
2.580000e+01	1.641834e-01
2.590000e+01	1.641537e-01
2.600000e+01	1.641733e-01
2.610000e+01	1.643332e-01
2.620000e+01	1.643500e-01
2.630000e+01	1.642139e-01
2.640000e+01	1.642898e-01
2.650000e+01	1.644315e-01
2.660000e+01	1.645259e-01
2.670000e+01	1.646451e-01
2.680000e+01	1.648593e-01
2.690000e+01	1.648773e-01
2.700000e+01	1.649630e-01
2.710000e+01	1.651096e-01
2.720000e+01	1.651434e-01
2.730000e+01	1.649947e-01
2.740000e+01	1.650314e-01
2.750000e+01	1.651400e-01
2.760000e+01	1.652492e-01
2.770000e+01	1.653041e-01
2.780000e+01	1.654029e-01
2.790000e+01	1.651908e-01
2.800000e+01	1.650822e-01
2.810000e+01	1.655970e-01
2.820000e+01	1.659688e-01
2.830000e+01	1.663129e-01
2.840000e+01	1.669864e-01
2.850000e+01	1.675184e-01
2.860000e+01	1.681159e-01
2.870000e+01	1.684749e-01
2.880000e+01	1.684843e-01
2.890000e+01	1.689310e-01
2.900000e+01	1.690310e-01
2.910000e+01	1.693822e-01
2.920000e+01	1.695375e-01
2.930000e+01	1.694411e-01
2.940000e+01	1.702413e-01
2.950000e+01	1.702315e-01
2.960000e+01	1.701842e-01
2.970000e+01	1.698650e-01
2.980000e+01	1.698653e-01
