#header: N=2	 eta=0.385000	TIME_MAX=30	TERM_TIME=20000	TEMP=0.683620
1.000000e-01	2.778875e-03
2.000000e-01	5.853345e-03
3.000000e-01	9.158572e-03
4.000000e-01	1.257178e-02
5.000000e-01	1.611216e-02
6.000000e-01	1.975024e-02
7.000000e-01	2.342297e-02
8.000000e-01	2.709851e-02
9.000000e-01	3.080295e-02
1.000000e+00	3.454930e-02
1.100000e+00	3.828896e-02
1.200000e+00	4.201520e-02
1.300000e+00	4.571881e-02
1.400000e+00	4.943909e-02
1.500000e+00	5.316910e-02
1.600000e+00	5.681843e-02
1.700000e+00	6.043010e-02
1.800000e+00	6.400146e-02
1.900000e+00	6.752317e-02
2.000000e+00	7.096804e-02
2.100000e+00	7.437919e-02
2.200000e+00	7.768313e-02
2.300000e+00	8.086346e-02
2.400000e+00	8.397379e-02
2.500000e+00	8.696898e-02
2.600000e+00	8.990739e-02
2.700000e+00	9.276846e-02
2.800000e+00	9.559764e-02
2.900000e+00	9.827733e-02
3.000000e+00	1.009249e-01
3.100000e+00	1.034128e-01
3.200000e+00	1.057553e-01
3.300000e+00	1.080572e-01
3.400000e+00	1.102836e-01
3.500000e+00	1.124337e-01
3.600000e+00	1.145308e-01
3.700000e+00	1.164753e-01
3.800000e+00	1.183269e-01
3.900000e+00	1.201325e-01
4.000000e+00	1.218293e-01
4.100000e+00	1.234620e-01
4.200000e+00	1.250507e-01
4.300000e+00	1.266748e-01
4.400000e+00	1.282574e-01
4.500000e+00	1.297681e-01
4.600000e+00	1.312268e-01
4.700000e+00	1.325877e-01
4.800000e+00	1.339362e-01
4.900000e+00	1.352339e-01
5.000000e+00	1.364822e-01
5.100000e+00	1.376207e-01
5.200000e+00	1.387438e-01
5.300000e+00	1.398174e-01
5.400000e+00	1.408409e-01
5.500000e+00	1.418152e-01
5.600000e+00	1.427770e-01
5.700000e+00	1.436594e-01
5.800000e+00	1.445215e-01
5.900000e+00	1.453702e-01
6.000000e+00	1.462854e-01
6.100000e+00	1.471902e-01
6.200000e+00	1.479940e-01
6.300000e+00	1.488233e-01
6.400000e+00	1.496103e-01
6.500000e+00	1.503049e-01
6.600000e+00	1.509961e-01
6.700000e+00	1.516734e-01
6.800000e+00	1.523699e-01
6.900000e+00	1.529805e-01
7.000000e+00	1.535585e-01
7.100000e+00	1.540776e-01
7.200000e+00	1.545996e-01
7.300000e+00	1.551481e-01
7.400000e+00	1.556665e-01
7.500000e+00	1.561820e-01
7.600000e+00	1.566927e-01
7.700000e+00	1.571842e-01
7.800000e+00	1.577103e-01
7.900000e+00	1.581554e-01
8.000000e+00	1.585689e-01
8.100000e+00	1.589670e-01
8.200000e+00	1.592778e-01
8.300000e+00	1.595734e-01
8.400000e+00	1.598911e-01
8.500000e+00	1.601277e-01
8.600000e+00	1.603144e-01
8.700000e+00	1.605386e-01
8.800000e+00	1.608042e-01
8.900000e+00	1.610465e-01
9.000000e+00	1.612261e-01
9.100000e+00	1.614380e-01
9.200000e+00	1.617281e-01
9.300000e+00	1.619670e-01
9.400000e+00	1.621825e-01
9.500000e+00	1.623159e-01
9.600000e+00	1.625095e-01
9.700000e+00	1.626238e-01
9.800000e+00	1.627167e-01
9.900000e+00	1.627621e-01
1.000000e+01	1.628057e-01
1.010000e+01	1.628401e-01
1.020000e+01	1.629522e-01
1.030000e+01	1.630803e-01
1.040000e+01	1.632139e-01
1.050000e+01	1.632382e-01
1.060000e+01	1.632634e-01
1.070000e+01	1.632860e-01
1.080000e+01	1.633190e-01
1.090000e+01	1.633618e-01
1.100000e+01	1.634020e-01
1.110000e+01	1.634539e-01
1.120000e+01	1.636282e-01
1.130000e+01	1.637301e-01
1.140000e+01	1.638056e-01
1.150000e+01	1.638678e-01
1.160000e+01	1.637316e-01
1.170000e+01	1.636776e-01
1.180000e+01	1.636505e-01
1.190000e+01	1.637295e-01
1.200000e+01	1.637605e-01
1.210000e+01	1.637311e-01
1.220000e+01	1.636191e-01
1.230000e+01	1.634238e-01
1.240000e+01	1.631912e-01
1.250000e+01	1.630118e-01
1.260000e+01	1.629658e-01
1.270000e+01	1.629498e-01
1.280000e+01	1.628721e-01
1.290000e+01	1.627810e-01
1.300000e+01	1.626736e-01
1.310000e+01	1.625724e-01
1.320000e+01	1.626556e-01
1.330000e+01	1.627238e-01
1.340000e+01	1.627982e-01
1.350000e+01	1.628347e-01
1.360000e+01	1.629601e-01
1.370000e+01	1.631720e-01
1.380000e+01	1.633339e-01
1.390000e+01	1.634488e-01
1.400000e+01	1.636499e-01
1.410000e+01	1.637382e-01
1.420000e+01	1.638602e-01
1.430000e+01	1.640437e-01
1.440000e+01	1.642281e-01
1.450000e+01	1.643683e-01
1.460000e+01	1.644872e-01
1.470000e+01	1.646099e-01
1.480000e+01	1.647129e-01
1.490000e+01	1.648793e-01
1.500000e+01	1.651364e-01
1.510000e+01	1.653570e-01
1.520000e+01	1.655383e-01
1.530000e+01	1.657596e-01
1.540000e+01	1.659786e-01
1.550000e+01	1.662958e-01
1.560000e+01	1.665608e-01
1.570000e+01	1.668489e-01
1.580000e+01	1.670919e-01
1.590000e+01	1.672771e-01
1.600000e+01	1.674815e-01
1.610000e+01	1.676777e-01
1.620000e+01	1.678094e-01
1.630000e+01	1.679603e-01
1.640000e+01	1.680259e-01
1.650000e+01	1.681627e-01
1.660000e+01	1.683077e-01
1.670000e+01	1.684279e-01
1.680000e+01	1.685267e-01
1.690000e+01	1.686603e-01
1.700000e+01	1.687524e-01
1.710000e+01	1.689289e-01
1.720000e+01	1.690430e-01
1.730000e+01	1.691092e-01
1.740000e+01	1.691436e-01
1.750000e+01	1.692289e-01
1.760000e+01	1.694220e-01
1.770000e+01	1.695869e-01
1.780000e+01	1.698540e-01
1.790000e+01	1.700784e-01
1.800000e+01	1.702455e-01
1.810000e+01	1.703664e-01
1.820000e+01	1.705536e-01
1.830000e+01	1.707208e-01
1.840000e+01	1.709437e-01
1.850000e+01	1.710272e-01
1.860000e+01	1.711234e-01
1.870000e+01	1.712201e-01
1.880000e+01	1.713052e-01
1.890000e+01	1.714191e-01
1.900000e+01	1.716680e-01
1.910000e+01	1.718399e-01
1.920000e+01	1.718402e-01
1.930000e+01	1.718748e-01
1.940000e+01	1.718629e-01
1.950000e+01	1.718511e-01
1.960000e+01	1.717826e-01
1.970000e+01	1.716916e-01
1.980000e+01	1.716049e-01
1.990000e+01	1.715743e-01
2.000000e+01	1.715417e-01
2.010000e+01	1.716322e-01
2.020000e+01	1.718422e-01
2.030000e+01	1.720044e-01
2.040000e+01	1.720949e-01
2.050000e+01	1.721935e-01
2.060000e+01	1.721987e-01
2.070000e+01	1.722488e-01
2.080000e+01	1.722984e-01
2.090000e+01	1.722443e-01
2.100000e+01	1.721968e-01
2.110000e+01	1.720578e-01
2.120000e+01	1.719409e-01
2.130000e+01	1.720219e-01
2.140000e+01	1.720572e-01
2.150000e+01	1.719622e-01
2.160000e+01	1.717275e-01
2.170000e+01	1.714747e-01
2.180000e+01	1.711536e-01
2.190000e+01	1.708534e-01
2.200000e+01	1.707092e-01
2.210000e+01	1.706203e-01
2.220000e+01	1.705331e-01
2.230000e+01	1.704674e-01
2.240000e+01	1.702788e-01
2.250000e+01	1.699436e-01
2.260000e+01	1.694346e-01
2.270000e+01	1.690822e-01
2.280000e+01	1.686824e-01
2.290000e+01	1.682568e-01
2.300000e+01	1.680773e-01
2.310000e+01	1.677779e-01
2.320000e+01	1.672814e-01
2.330000e+01	1.668506e-01
2.340000e+01	1.665932e-01
2.350000e+01	1.662966e-01
2.360000e+01	1.660130e-01
2.370000e+01	1.659021e-01
2.380000e+01	1.657856e-01
2.390000e+01	1.656479e-01
2.400000e+01	1.654004e-01
2.410000e+01	1.652743e-01
2.420000e+01	1.651956e-01
2.430000e+01	1.649684e-01
2.440000e+01	1.645692e-01
2.450000e+01	1.641575e-01
2.460000e+01	1.636862e-01
2.470000e+01	1.633265e-01
2.480000e+01	1.629732e-01
2.490000e+01	1.626114e-01
2.500000e+01	1.621224e-01
2.510000e+01	1.615664e-01
2.520000e+01	1.611427e-01
2.530000e+01	1.609547e-01
2.540000e+01	1.606344e-01
2.550000e+01	1.603470e-01
2.560000e+01	1.601271e-01
2.570000e+01	1.598474e-01
2.580000e+01	1.596509e-01
2.590000e+01	1.595897e-01
2.600000e+01	1.595221e-01
2.610000e+01	1.594717e-01
2.620000e+01	1.596004e-01
2.630000e+01	1.597644e-01
2.640000e+01	1.601437e-01
2.650000e+01	1.607069e-01
2.660000e+01	1.611742e-01
2.670000e+01	1.616274e-01
2.680000e+01	1.622887e-01
2.690000e+01	1.629692e-01
2.700000e+01	1.635308e-01
2.710000e+01	1.639830e-01
2.720000e+01	1.643152e-01
2.730000e+01	1.649523e-01
2.740000e+01	1.652530e-01
2.750000e+01	1.656002e-01
2.760000e+01	1.654891e-01
2.770000e+01	1.655864e-01
2.780000e+01	1.658503e-01
2.790000e+01	1.659685e-01
2.800000e+01	1.658030e-01
2.810000e+01	1.655530e-01
2.820000e+01	1.660089e-01
2.830000e+01	1.667271e-01
2.840000e+01	1.672816e-01
2.850000e+01	1.676262e-01
2.860000e+01	1.681482e-01
2.870000e+01	1.686774e-01
2.880000e+01	1.691102e-01
2.890000e+01	1.699222e-01
2.900000e+01	1.706762e-01
2.910000e+01	1.709134e-01
2.920000e+01	1.714941e-01
2.930000e+01	1.729438e-01
2.940000e+01	1.746254e-01
2.950000e+01	1.751908e-01
2.960000e+01	1.743227e-01
2.970000e+01	1.731794e-01
2.980000e+01	1.712769e-01
