#header: N=2	 eta=0.390000	TIME_MAX=30	TERM_TIME=20000	TEMP=0.677543
1.000000e-01	2.750145e-03
2.000000e-01	5.777109e-03
3.000000e-01	9.004808e-03
4.000000e-01	1.234177e-02
5.000000e-01	1.578908e-02
6.000000e-01	1.930686e-02
7.000000e-01	2.290889e-02
8.000000e-01	2.653881e-02
9.000000e-01	3.020529e-02
1.000000e+00	3.391765e-02
1.100000e+00	3.761994e-02
1.200000e+00	4.127661e-02
1.300000e+00	4.489944e-02
1.400000e+00	4.849022e-02
1.500000e+00	5.203535e-02
1.600000e+00	5.550860e-02
1.700000e+00	5.890983e-02
1.800000e+00	6.225790e-02
1.900000e+00	6.552688e-02
2.000000e+00	6.871821e-02
2.100000e+00	7.184406e-02
2.200000e+00	7.483786e-02
2.300000e+00	7.779870e-02
2.400000e+00	8.067041e-02
2.500000e+00	8.346191e-02
2.600000e+00	8.619505e-02
2.700000e+00	8.882839e-02
2.800000e+00	9.142276e-02
2.900000e+00	9.389430e-02
3.000000e+00	9.627155e-02
3.100000e+00	9.852944e-02
3.200000e+00	1.007375e-01
3.300000e+00	1.028522e-01
3.400000e+00	1.049560e-01
3.500000e+00	1.070213e-01
3.600000e+00	1.089697e-01
3.700000e+00	1.108691e-01
3.800000e+00	1.126865e-01
3.900000e+00	1.144103e-01
4.000000e+00	1.160774e-01
4.100000e+00	1.176760e-01
4.200000e+00	1.192567e-01
4.300000e+00	1.208005e-01
4.400000e+00	1.223228e-01
4.500000e+00	1.237870e-01
4.600000e+00	1.252395e-01
4.700000e+00	1.266155e-01
4.800000e+00	1.279327e-01
4.900000e+00	1.291603e-01
5.000000e+00	1.303915e-01
5.100000e+00	1.316182e-01
5.200000e+00	1.327661e-01
5.300000e+00	1.338638e-01
5.400000e+00	1.349229e-01
5.500000e+00	1.359240e-01
5.600000e+00	1.368705e-01
5.700000e+00	1.378310e-01
5.800000e+00	1.387542e-01
5.900000e+00	1.396824e-01
6.000000e+00	1.405663e-01
6.100000e+00	1.414178e-01
6.200000e+00	1.421544e-01
6.300000e+00	1.429169e-01
6.400000e+00	1.435968e-01
6.500000e+00	1.442672e-01
6.600000e+00	1.448937e-01
6.700000e+00	1.454842e-01
6.800000e+00	1.460484e-01
6.900000e+00	1.465801e-01
7.000000e+00	1.471263e-01
7.100000e+00	1.477229e-01
7.200000e+00	1.482856e-01
7.300000e+00	1.487925e-01
7.400000e+00	1.492859e-01
7.500000e+00	1.496961e-01
7.600000e+00	1.501476e-01
7.700000e+00	1.506251e-01
7.800000e+00	1.510246e-01
7.900000e+00	1.514576e-01
8.000000e+00	1.518735e-01
8.100000e+00	1.523451e-01
8.200000e+00	1.527983e-01
8.300000e+00	1.532243e-01
8.400000e+00	1.536347e-01
8.500000e+00	1.540540e-01
8.600000e+00	1.544372e-01
8.700000e+00	1.548154e-01
8.800000e+00	1.551149e-01
8.900000e+00	1.554211e-01
9.000000e+00	1.557608e-01
9.100000e+00	1.560670e-01
9.200000e+00	1.562996e-01
9.300000e+00	1.566038e-01
9.400000e+00	1.568918e-01
9.500000e+00	1.571385e-01
9.600000e+00	1.573343e-01
9.700000e+00	1.574538e-01
9.800000e+00	1.576539e-01
9.900000e+00	1.579079e-01
1.000000e+01	1.579923e-01
1.010000e+01	1.580384e-01
1.020000e+01	1.580151e-01
1.030000e+01	1.580044e-01
1.040000e+01	1.579852e-01
1.050000e+01	1.580492e-01
1.060000e+01	1.581026e-01
1.070000e+01	1.582465e-01
1.080000e+01	1.583552e-01
1.090000e+01	1.584036e-01
1.100000e+01	1.584398e-01
1.110000e+01	1.584483e-01
1.120000e+01	1.585979e-01
1.130000e+01	1.587746e-01
1.140000e+01	1.589091e-01
1.150000e+01	1.591116e-01
1.160000e+01	1.593317e-01
1.170000e+01	1.595870e-01
1.180000e+01	1.598368e-01
1.190000e+01	1.600667e-01
1.200000e+01	1.603071e-01
1.210000e+01	1.604539e-01
1.220000e+01	1.605791e-01
1.230000e+01	1.607790e-01
1.240000e+01	1.610545e-01
1.250000e+01	1.613184e-01
1.260000e+01	1.614907e-01
1.270000e+01	1.616076e-01
1.280000e+01	1.617078e-01
1.290000e+01	1.617755e-01
1.300000e+01	1.617640e-01
1.310000e+01	1.617794e-01
1.320000e+01	1.618295e-01
1.330000e+01	1.618638e-01
1.340000e+01	1.619196e-01
1.350000e+01	1.619742e-01
1.360000e+01	1.620364e-01
1.370000e+01	1.620726e-01
1.380000e+01	1.620188e-01
1.390000e+01	1.619973e-01
1.400000e+01	1.618964e-01
1.410000e+01	1.616887e-01
1.420000e+01	1.615500e-01
1.430000e+01	1.614562e-01
1.440000e+01	1.614199e-01
1.450000e+01	1.613735e-01
1.460000e+01	1.614396e-01
1.470000e+01	1.615284e-01
1.480000e+01	1.616328e-01
1.490000e+01	1.618254e-01
1.500000e+01	1.620521e-01
1.510000e+01	1.622530e-01
1.520000e+01	1.624230e-01
1.530000e+01	1.625559e-01
1.540000e+01	1.626253e-01
1.550000e+01	1.626904e-01
1.560000e+01	1.627932e-01
1.570000e+01	1.628573e-01
1.580000e+01	1.629379e-01
1.590000e+01	1.630723e-01
1.600000e+01	1.632889e-01
1.610000e+01	1.634998e-01
1.620000e+01	1.637198e-01
1.630000e+01	1.638674e-01
1.640000e+01	1.641932e-01
1.650000e+01	1.646741e-01
1.660000e+01	1.650193e-01
1.670000e+01	1.652773e-01
1.680000e+01	1.653788e-01
1.690000e+01	1.654243e-01
1.700000e+01	1.655343e-01
1.710000e+01	1.657118e-01
1.720000e+01	1.658558e-01
1.730000e+01	1.659475e-01
1.740000e+01	1.660425e-01
1.750000e+01	1.661771e-01
1.760000e+01	1.662527e-01
1.770000e+01	1.663204e-01
1.780000e+01	1.664554e-01
1.790000e+01	1.665913e-01
1.800000e+01	1.667774e-01
1.810000e+01	1.669746e-01
1.820000e+01	1.672440e-01
1.830000e+01	1.674907e-01
1.840000e+01	1.677657e-01
1.850000e+01	1.679841e-01
1.860000e+01	1.682045e-01
1.870000e+01	1.684111e-01
1.880000e+01	1.686572e-01
1.890000e+01	1.689043e-01
1.900000e+01	1.689792e-01
1.910000e+01	1.690407e-01
1.920000e+01	1.692151e-01
1.930000e+01	1.693042e-01
1.940000e+01	1.693467e-01
1.950000e+01	1.693923e-01
1.960000e+01	1.694130e-01
1.970000e+01	1.694922e-01
1.980000e+01	1.695520e-01
1.990000e+01	1.696368e-01
2.000000e+01	1.695867e-01
2.010000e+01	1.695401e-01
2.020000e+01	1.695561e-01
2.030000e+01	1.695992e-01
2.040000e+01	1.696862e-01
2.050000e+01	1.696257e-01
2.060000e+01	1.696270e-01
2.070000e+01	1.695771e-01
2.080000e+01	1.695083e-01
2.090000e+01	1.693789e-01
2.100000e+01	1.692399e-01
2.110000e+01	1.690870e-01
2.120000e+01	1.690697e-01
2.130000e+01	1.691422e-01
2.140000e+01	1.691707e-01
2.150000e+01	1.689836e-01
2.160000e+01	1.689537e-01
2.170000e+01	1.690940e-01
2.180000e+01	1.693825e-01
2.190000e+01	1.696929e-01
2.200000e+01	1.697410e-01
2.210000e+01	1.697913e-01
2.220000e+01	1.700012e-01
2.230000e+01	1.701611e-01
2.240000e+01	1.702320e-01
2.250000e+01	1.701701e-01
2.260000e+01	1.702873e-01
2.270000e+01	1.704886e-01
2.280000e+01	1.708429e-01
2.290000e+01	1.710714e-01
2.300000e+01	1.712911e-01
2.310000e+01	1.713156e-01
2.320000e+01	1.714660e-01
2.330000e+01	1.715598e-01
2.340000e+01	1.715744e-01
2.350000e+01	1.714740e-01
2.360000e+01	1.713393e-01
2.370000e+01	1.711657e-01
2.380000e+01	1.708767e-01
2.390000e+01	1.707443e-01
2.400000e+01	1.707284e-01
2.410000e+01	1.707768e-01
2.420000e+01	1.707374e-01
2.430000e+01	1.705894e-01
2.440000e+01	1.705880e-01
2.450000e+01	1.707501e-01
2.460000e+01	1.708447e-01
2.470000e+01	1.705821e-01
2.480000e+01	1.702003e-01
2.490000e+01	1.700711e-01
2.500000e+01	1.699284e-01
2.510000e+01	1.698154e-01
2.520000e+01	1.697109e-01
2.530000e+01	1.698786e-01
2.540000e+01	1.701615e-01
2.550000e+01	1.703900e-01
2.560000e+01	1.706568e-01
2.570000e+01	1.707870e-01
2.580000e+01	1.710042e-01
2.590000e+01	1.713573e-01
2.600000e+01	1.719332e-01
2.610000e+01	1.721485e-01
2.620000e+01	1.722428e-01
2.630000e+01	1.725415e-01
2.640000e+01	1.728317e-01
2.650000e+01	1.730044e-01
2.660000e+01	1.731762e-01
2.670000e+01	1.734252e-01
2.680000e+01	1.735462e-01
2.690000e+01	1.734702e-01
2.700000e+01	1.735517e-01
2.710000e+01	1.737069e-01
2.720000e+01	1.736565e-01
2.730000e+01	1.737141e-01
2.740000e+01	1.735814e-01
2.750000e+01	1.735911e-01
2.760000e+01	1.736599e-01
2.770000e+01	1.737450e-01
2.780000e+01	1.737656e-01
2.790000e+01	1.738898e-01
2.800000e+01	1.740610e-01
2.810000e+01	1.742210e-01
2.820000e+01	1.743453e-01
2.830000e+01	1.745124e-01
2.840000e+01	1.746187e-01
2.850000e+01	1.742657e-01
2.860000e+01	1.733730e-01
2.870000e+01	1.728700e-01
2.880000e+01	1.722507e-01
2.890000e+01	1.721865e-01
2.900000e+01	1.720266e-01
2.910000e+01	1.721759e-01
2.920000e+01	1.728480e-01
2.930000e+01	1.730956e-01
2.940000e+01	1.730249e-01
2.950000e+01	1.730965e-01
2.960000e+01	1.723580e-01
2.970000e+01	1.716686e-01
2.980000e+01	1.700840e-01
