#header: N=2	 eta=0.690000	TIME_MAX=30	TERM_TIME=20000	TEMP=0.698822
1.000000e-01	9.940678e-04
2.000000e-01	1.317714e-03
3.000000e-01	1.600719e-03
4.000000e-01	1.866859e-03
5.000000e-01	2.138514e-03
6.000000e-01	2.405720e-03
7.000000e-01	2.688061e-03
8.000000e-01	2.955429e-03
9.000000e-01	3.221897e-03
1.000000e+00	3.479822e-03
1.100000e+00	3.727810e-03
1.200000e+00	3.977041e-03
1.300000e+00	4.240035e-03
1.400000e+00	4.501087e-03
1.500000e+00	4.760736e-03
1.600000e+00	5.013132e-03
1.700000e+00	5.274222e-03
1.800000e+00	5.531922e-03
1.900000e+00	5.786478e-03
2.000000e+00	6.040111e-03
2.100000e+00	6.295566e-03
2.200000e+00	6.551165e-03
2.300000e+00	6.810043e-03
2.400000e+00	7.061237e-03
2.500000e+00	7.316380e-03
2.600000e+00	7.568604e-03
2.700000e+00	7.834853e-03
2.800000e+00	8.090457e-03
2.900000e+00	8.345633e-03
3.000000e+00	8.603236e-03
3.100000e+00	8.871838e-03
3.200000e+00	9.136893e-03
3.300000e+00	9.402749e-03
3.400000e+00	9.683987e-03
3.500000e+00	9.955335e-03
3.600000e+00	1.023474e-02
3.700000e+00	1.050933e-02
3.800000e+00	1.078885e-02
3.900000e+00	1.107311e-02
4.000000e+00	1.134694e-02
4.100000e+00	1.163158e-02
4.200000e+00	1.191951e-02
4.300000e+00	1.220652e-02
4.400000e+00	1.247783e-02
4.500000e+00	1.275808e-02
4.600000e+00	1.303605e-02
4.700000e+00	1.331474e-02
4.800000e+00	1.358560e-02
4.900000e+00	1.385499e-02
5.000000e+00	1.413775e-02
5.100000e+00	1.440947e-02
5.200000e+00	1.468692e-02
5.300000e+00	1.495907e-02
5.400000e+00	1.521551e-02
5.500000e+00	1.547509e-02
5.600000e+00	1.572831e-02
5.700000e+00	1.596793e-02
5.800000e+00	1.621724e-02
5.900000e+00	1.647138e-02
6.000000e+00	1.671839e-02
6.100000e+00	1.697160e-02
6.200000e+00	1.723117e-02
6.300000e+00	1.749627e-02
6.400000e+00	1.777471e-02
6.500000e+00	1.804454e-02
6.600000e+00	1.832570e-02
6.700000e+00	1.861228e-02
6.800000e+00	1.888944e-02
6.900000e+00	1.916792e-02
7.000000e+00	1.944749e-02
7.100000e+00	1.972071e-02
7.200000e+00	2.000893e-02
7.300000e+00	2.029009e-02
7.400000e+00	2.056475e-02
7.500000e+00	2.083236e-02
7.600000e+00	2.111111e-02
7.700000e+00	2.139578e-02
7.800000e+00	2.167616e-02
7.900000e+00	2.194350e-02
8.000000e+00	2.223490e-02
8.100000e+00	2.250036e-02
8.200000e+00	2.277949e-02
8.300000e+00	2.305655e-02
8.400000e+00	2.333193e-02
8.500000e+00	2.361308e-02
8.600000e+00	2.390357e-02
8.700000e+00	2.419020e-02
8.800000e+00	2.447973e-02
8.900000e+00	2.475496e-02
9.000000e+00	2.503881e-02
9.100000e+00	2.533924e-02
9.200000e+00	2.563733e-02
9.300000e+00	2.593136e-02
9.400000e+00	2.622596e-02
9.500000e+00	2.652780e-02
9.600000e+00	2.681566e-02
9.700000e+00	2.710808e-02
9.800000e+00	2.741040e-02
9.900000e+00	2.770294e-02
1.000000e+01	2.800247e-02
1.010000e+01	2.829661e-02
1.020000e+01	2.858988e-02
1.030000e+01	2.887546e-02
1.040000e+01	2.915650e-02
1.050000e+01	2.944985e-02
1.060000e+01	2.974347e-02
1.070000e+01	3.001754e-02
1.080000e+01	3.030148e-02
1.090000e+01	3.060149e-02
1.100000e+01	3.088850e-02
1.110000e+01	3.118673e-02
1.120000e+01	3.148051e-02
1.130000e+01	3.177326e-02
1.140000e+01	3.208040e-02
1.150000e+01	3.237240e-02
1.160000e+01	3.265881e-02
1.170000e+01	3.293828e-02
1.180000e+01	3.320851e-02
1.190000e+01	3.347141e-02
1.200000e+01	3.372456e-02
1.210000e+01	3.396636e-02
1.220000e+01	3.420828e-02
1.230000e+01	3.444397e-02
1.240000e+01	3.469716e-02
1.250000e+01	3.494773e-02
1.260000e+01	3.521379e-02
1.270000e+01	3.549117e-02
1.280000e+01	3.575435e-02
1.290000e+01	3.602013e-02
1.300000e+01	3.630330e-02
1.310000e+01	3.659843e-02
1.320000e+01	3.690139e-02
1.330000e+01	3.717701e-02
1.340000e+01	3.746129e-02
1.350000e+01	3.774246e-02
1.360000e+01	3.801612e-02
1.370000e+01	3.829233e-02
1.380000e+01	3.857330e-02
1.390000e+01	3.886376e-02
1.400000e+01	3.913775e-02
1.410000e+01	3.940528e-02
1.420000e+01	3.966178e-02
1.430000e+01	3.990287e-02
1.440000e+01	4.017541e-02
1.450000e+01	4.046046e-02
1.460000e+01	4.072347e-02
1.470000e+01	4.097217e-02
1.480000e+01	4.121405e-02
1.490000e+01	4.146888e-02
1.500000e+01	4.171799e-02
1.510000e+01	4.197605e-02
1.520000e+01	4.220535e-02
1.530000e+01	4.240978e-02
1.540000e+01	4.263553e-02
1.550000e+01	4.283826e-02
1.560000e+01	4.307502e-02
1.570000e+01	4.329184e-02
1.580000e+01	4.350526e-02
1.590000e+01	4.372959e-02
1.600000e+01	4.395240e-02
1.610000e+01	4.417207e-02
1.620000e+01	4.439756e-02
1.630000e+01	4.460824e-02
1.640000e+01	4.482565e-02
1.650000e+01	4.503649e-02
1.660000e+01	4.526488e-02
1.670000e+01	4.548283e-02
1.680000e+01	4.571490e-02
1.690000e+01	4.594646e-02
1.700000e+01	4.618288e-02
1.710000e+01	4.642822e-02
1.720000e+01	4.665767e-02
1.730000e+01	4.686826e-02
1.740000e+01	4.708963e-02
1.750000e+01	4.732095e-02
1.760000e+01	4.753327e-02
1.770000e+01	4.775529e-02
1.780000e+01	4.799100e-02
1.790000e+01	4.822539e-02
1.800000e+01	4.845197e-02
1.810000e+01	4.868666e-02
1.820000e+01	4.892712e-02
1.830000e+01	4.915176e-02
1.840000e+01	4.934856e-02
1.850000e+01	4.958573e-02
1.860000e+01	4.979999e-02
1.870000e+01	5.001426e-02
1.880000e+01	5.024726e-02
1.890000e+01	5.045605e-02
1.900000e+01	5.066790e-02
1.910000e+01	5.086072e-02
1.920000e+01	5.104199e-02
1.930000e+01	5.123954e-02
1.940000e+01	5.143011e-02
1.950000e+01	5.164701e-02
1.960000e+01	5.183250e-02
1.970000e+01	5.205540e-02
1.980000e+01	5.226140e-02
1.990000e+01	5.246386e-02
2.000000e+01	5.266753e-02
2.010000e+01	5.289127e-02
2.020000e+01	5.311200e-02
2.030000e+01	5.331579e-02
2.040000e+01	5.353654e-02
2.050000e+01	5.378419e-02
2.060000e+01	5.399071e-02
2.070000e+01	5.422384e-02
2.080000e+01	5.443593e-02
2.090000e+01	5.469325e-02
2.100000e+01	5.489482e-02
2.110000e+01	5.512980e-02
2.120000e+01	5.533049e-02
2.130000e+01	5.555957e-02
2.140000e+01	5.575021e-02
2.150000e+01	5.595149e-02
2.160000e+01	5.617755e-02
2.170000e+01	5.634881e-02
2.180000e+01	5.652121e-02
2.190000e+01	5.667961e-02
2.200000e+01	5.685909e-02
2.210000e+01	5.699740e-02
2.220000e+01	5.715720e-02
2.230000e+01	5.736348e-02
2.240000e+01	5.757789e-02
2.250000e+01	5.771232e-02
2.260000e+01	5.790962e-02
2.270000e+01	5.808150e-02
2.280000e+01	5.827139e-02
2.290000e+01	5.844087e-02
2.300000e+01	5.861397e-02
2.310000e+01	5.876129e-02
2.320000e+01	5.894461e-02
2.330000e+01	5.911191e-02
2.340000e+01	5.925731e-02
2.350000e+01	5.942804e-02
2.360000e+01	5.958887e-02
2.370000e+01	5.980649e-02
2.380000e+01	5.998002e-02
2.390000e+01	6.013648e-02
2.400000e+01	6.036556e-02
2.410000e+01	6.054684e-02
2.420000e+01	6.073636e-02
2.430000e+01	6.091803e-02
2.440000e+01	6.106725e-02
2.450000e+01	6.117670e-02
2.460000e+01	6.137363e-02
2.470000e+01	6.153247e-02
2.480000e+01	6.168256e-02
2.490000e+01	6.181985e-02
2.500000e+01	6.196975e-02
2.510000e+01	6.209354e-02
2.520000e+01	6.228690e-02
2.530000e+01	6.241106e-02
2.540000e+01	6.256899e-02
2.550000e+01	6.276461e-02
2.560000e+01	6.290572e-02
2.570000e+01	6.305534e-02
2.580000e+01	6.324888e-02
2.590000e+01	6.341703e-02
2.600000e+01	6.357017e-02
2.610000e+01	6.375869e-02
2.620000e+01	6.395480e-02
2.630000e+01	6.405878e-02
2.640000e+01	6.422423e-02
2.650000e+01	6.444445e-02
2.660000e+01	6.474807e-02
2.670000e+01	6.495394e-02
2.680000e+01	6.520822e-02
2.690000e+01	6.552352e-02
2.700000e+01	6.577274e-02
2.710000e+01	6.602308e-02
2.720000e+01	6.621408e-02
2.730000e+01	6.641387e-02
2.740000e+01	6.664776e-02
2.750000e+01	6.691548e-02
2.760000e+01	6.733752e-02
2.770000e+01	6.769619e-02
2.780000e+01	6.796947e-02
2.790000e+01	6.835279e-02
2.800000e+01	6.868337e-02
2.810000e+01	6.919473e-02
2.820000e+01	6.969747e-02
2.830000e+01	7.022085e-02
2.840000e+01	7.078745e-02
2.850000e+01	7.133262e-02
2.860000e+01	7.205512e-02
2.870000e+01	7.256588e-02
2.880000e+01	7.333519e-02
2.890000e+01	7.438271e-02
2.900000e+01	7.547061e-02
2.910000e+01	7.681554e-02
2.920000e+01	7.846142e-02
2.930000e+01	8.020453e-02
2.940000e+01	8.247425e-02
2.950000e+01	8.618485e-02
2.960000e+01	9.086892e-02
2.970000e+01	9.943738e-02
2.980000e+01	1.166922e-01
