#header: N=2	 eta=0.698000	TIME_MAX=30	TERM_TIME=20000	TEMP=0.670829
1.000000e-01	9.180250e-04
2.000000e-01	1.099925e-03
3.000000e-01	1.230792e-03
4.000000e-01	1.331211e-03
5.000000e-01	1.446880e-03
6.000000e-01	1.564010e-03
7.000000e-01	1.674353e-03
8.000000e-01	1.786660e-03
9.000000e-01	1.886538e-03
1.000000e+00	1.988048e-03
1.100000e+00	2.095077e-03
1.200000e+00	2.202172e-03
1.300000e+00	2.301013e-03
1.400000e+00	2.401531e-03
1.500000e+00	2.521884e-03
1.600000e+00	2.627078e-03
1.700000e+00	2.731739e-03
1.800000e+00	2.831889e-03
1.900000e+00	2.929226e-03
2.000000e+00	3.032005e-03
2.100000e+00	3.143997e-03
2.200000e+00	3.255000e-03
2.300000e+00	3.362551e-03
2.400000e+00	3.466377e-03
2.500000e+00	3.566304e-03
2.600000e+00	3.673019e-03
2.700000e+00	3.776424e-03
2.800000e+00	3.882259e-03
2.900000e+00	3.994089e-03
3.000000e+00	4.106924e-03
3.100000e+00	4.222550e-03
3.200000e+00	4.332220e-03
3.300000e+00	4.441942e-03
3.400000e+00	4.552282e-03
3.500000e+00	4.663625e-03
3.600000e+00	4.774361e-03
3.700000e+00	4.895556e-03
3.800000e+00	5.011669e-03
3.900000e+00	5.135696e-03
4.000000e+00	5.249243e-03
4.100000e+00	5.358379e-03
4.200000e+00	5.472360e-03
4.300000e+00	5.595608e-03
4.400000e+00	5.712180e-03
4.500000e+00	5.829613e-03
4.600000e+00	5.941919e-03
4.700000e+00	6.052653e-03
4.800000e+00	6.177151e-03
4.900000e+00	6.299502e-03
5.000000e+00	6.428906e-03
5.100000e+00	6.544480e-03
5.200000e+00	6.659860e-03
5.300000e+00	6.768964e-03
5.400000e+00	6.881219e-03
5.500000e+00	6.996673e-03
5.600000e+00	7.109428e-03
5.700000e+00	7.226653e-03
5.800000e+00	7.339613e-03
5.900000e+00	7.436267e-03
6.000000e+00	7.549865e-03
6.100000e+00	7.662172e-03
6.200000e+00	7.773661e-03
6.300000e+00	7.883066e-03
6.400000e+00	7.997072e-03
6.500000e+00	8.101240e-03
6.600000e+00	8.202683e-03
6.700000e+00	8.298847e-03
6.800000e+00	8.399332e-03
6.900000e+00	8.504035e-03
7.000000e+00	8.600018e-03
7.100000e+00	8.700319e-03
7.200000e+00	8.803624e-03
7.300000e+00	8.883701e-03
7.400000e+00	8.971077e-03
7.500000e+00	9.057965e-03
7.600000e+00	9.143795e-03
7.700000e+00	9.235360e-03
7.800000e+00	9.336564e-03
7.900000e+00	9.434726e-03
8.000000e+00	9.526418e-03
8.100000e+00	9.606693e-03
8.200000e+00	9.698609e-03
8.300000e+00	9.789883e-03
8.400000e+00	9.879985e-03
8.500000e+00	9.958881e-03
8.600000e+00	1.004498e-02
8.700000e+00	1.013231e-02
8.800000e+00	1.022280e-02
8.900000e+00	1.031588e-02
9.000000e+00	1.039635e-02
9.100000e+00	1.048697e-02
9.200000e+00	1.058619e-02
9.300000e+00	1.067195e-02
9.400000e+00	1.075792e-02
9.500000e+00	1.084163e-02
9.600000e+00	1.092251e-02
9.700000e+00	1.100202e-02
9.800000e+00	1.107750e-02
9.900000e+00	1.116359e-02
1.000000e+01	1.123236e-02
1.010000e+01	1.130687e-02
1.020000e+01	1.139929e-02
1.030000e+01	1.147834e-02
1.040000e+01	1.155514e-02
1.050000e+01	1.163102e-02
1.060000e+01	1.171346e-02
1.070000e+01	1.178661e-02
1.080000e+01	1.186622e-02
1.090000e+01	1.193361e-02
1.100000e+01	1.201029e-02
1.110000e+01	1.208445e-02
1.120000e+01	1.215507e-02
1.130000e+01	1.223836e-02
1.140000e+01	1.231197e-02
1.150000e+01	1.239632e-02
1.160000e+01	1.246309e-02
1.170000e+01	1.253878e-02
1.180000e+01	1.261169e-02
1.190000e+01	1.268323e-02
1.200000e+01	1.276904e-02
1.210000e+01	1.284629e-02
1.220000e+01	1.292205e-02
1.230000e+01	1.300177e-02
1.240000e+01	1.306978e-02
1.250000e+01	1.315271e-02
1.260000e+01	1.324381e-02
1.270000e+01	1.331576e-02
1.280000e+01	1.339249e-02
1.290000e+01	1.347591e-02
1.300000e+01	1.357141e-02
1.310000e+01	1.365879e-02
1.320000e+01	1.374194e-02
1.330000e+01	1.381720e-02
1.340000e+01	1.390074e-02
1.350000e+01	1.399139e-02
1.360000e+01	1.409822e-02
1.370000e+01	1.418988e-02
1.380000e+01	1.429298e-02
1.390000e+01	1.437230e-02
1.400000e+01	1.447278e-02
1.410000e+01	1.456349e-02
1.420000e+01	1.465994e-02
1.430000e+01	1.474428e-02
1.440000e+01	1.483100e-02
1.450000e+01	1.493401e-02
1.460000e+01	1.502328e-02
1.470000e+01	1.512066e-02
1.480000e+01	1.520049e-02
1.490000e+01	1.529222e-02
1.500000e+01	1.540015e-02
1.510000e+01	1.548901e-02
1.520000e+01	1.558142e-02
1.530000e+01	1.566634e-02
1.540000e+01	1.575544e-02
1.550000e+01	1.584485e-02
1.560000e+01	1.592557e-02
1.570000e+01	1.601937e-02
1.580000e+01	1.608863e-02
1.590000e+01	1.615780e-02
1.600000e+01	1.621776e-02
1.610000e+01	1.629935e-02
1.620000e+01	1.637845e-02
1.630000e+01	1.646116e-02
1.640000e+01	1.654884e-02
1.650000e+01	1.663516e-02
1.660000e+01	1.672262e-02
1.670000e+01	1.679532e-02
1.680000e+01	1.690916e-02
1.690000e+01	1.700185e-02
1.700000e+01	1.709304e-02
1.710000e+01	1.718096e-02
1.720000e+01	1.727796e-02
1.730000e+01	1.736317e-02
1.740000e+01	1.745626e-02
1.750000e+01	1.752263e-02
1.760000e+01	1.763301e-02
1.770000e+01	1.773600e-02
1.780000e+01	1.783458e-02
1.790000e+01	1.792707e-02
1.800000e+01	1.802142e-02
1.810000e+01	1.812045e-02
1.820000e+01	1.822012e-02
1.830000e+01	1.831319e-02
1.840000e+01	1.842829e-02
1.850000e+01	1.854785e-02
1.860000e+01	1.863035e-02
1.870000e+01	1.874561e-02
1.880000e+01	1.883391e-02
1.890000e+01	1.893071e-02
1.900000e+01	1.902778e-02
1.910000e+01	1.911955e-02
1.920000e+01	1.922474e-02
1.930000e+01	1.931800e-02
1.940000e+01	1.941879e-02
1.950000e+01	1.949972e-02
1.960000e+01	1.960683e-02
1.970000e+01	1.970152e-02
1.980000e+01	1.981899e-02
1.990000e+01	1.993823e-02
2.000000e+01	2.004273e-02
2.010000e+01	2.013648e-02
2.020000e+01	2.025184e-02
2.030000e+01	2.035422e-02
2.040000e+01	2.047639e-02
2.050000e+01	2.061666e-02
2.060000e+01	2.071219e-02
2.070000e+01	2.080174e-02
2.080000e+01	2.089473e-02
2.090000e+01	2.102529e-02
2.100000e+01	2.114175e-02
2.110000e+01	2.128331e-02
2.120000e+01	2.138677e-02
2.130000e+01	2.149619e-02
2.140000e+01	2.164296e-02
2.150000e+01	2.177255e-02
2.160000e+01	2.189375e-02
2.170000e+01	2.203877e-02
2.180000e+01	2.217437e-02
2.190000e+01	2.230017e-02
2.200000e+01	2.243111e-02
2.210000e+01	2.258047e-02
2.220000e+01	2.269779e-02
2.230000e+01	2.287412e-02
2.240000e+01	2.300839e-02
2.250000e+01	2.316909e-02
2.260000e+01	2.332226e-02
2.270000e+01	2.347566e-02
2.280000e+01	2.360286e-02
2.290000e+01	2.372828e-02
2.300000e+01	2.389682e-02
2.310000e+01	2.402516e-02
2.320000e+01	2.415971e-02
2.330000e+01	2.433123e-02
2.340000e+01	2.443290e-02
2.350000e+01	2.457756e-02
2.360000e+01	2.470917e-02
2.370000e+01	2.483302e-02
2.380000e+01	2.497443e-02
2.390000e+01	2.511687e-02
2.400000e+01	2.523844e-02
2.410000e+01	2.535455e-02
2.420000e+01	2.551161e-02
2.430000e+01	2.567275e-02
2.440000e+01	2.580340e-02
2.450000e+01	2.592206e-02
2.460000e+01	2.609352e-02
2.470000e+01	2.624887e-02
2.480000e+01	2.639305e-02
2.490000e+01	2.654711e-02
2.500000e+01	2.670232e-02
2.510000e+01	2.685496e-02
2.520000e+01	2.702372e-02
2.530000e+01	2.716650e-02
2.540000e+01	2.732409e-02
2.550000e+01	2.751573e-02
2.560000e+01	2.764928e-02
2.570000e+01	2.784360e-02
2.580000e+01	2.802854e-02
2.590000e+01	2.824624e-02
2.600000e+01	2.844338e-02
2.610000e+01	2.863615e-02
2.620000e+01	2.884617e-02
2.630000e+01	2.901067e-02
2.640000e+01	2.919978e-02
2.650000e+01	2.940536e-02
2.660000e+01	2.957661e-02
2.670000e+01	2.973546e-02
2.680000e+01	2.994722e-02
2.690000e+01	3.012229e-02
2.700000e+01	3.029376e-02
2.710000e+01	3.046592e-02
2.720000e+01	3.072110e-02
2.730000e+01	3.097240e-02
2.740000e+01	3.123998e-02
2.750000e+01	3.146443e-02
2.760000e+01	3.175639e-02
2.770000e+01	3.211255e-02
2.780000e+01	3.246333e-02
2.790000e+01	3.277585e-02
2.800000e+01	3.320945e-02
2.810000e+01	3.362402e-02
2.820000e+01	3.397298e-02
2.830000e+01	3.448136e-02
2.840000e+01	3.503582e-02
2.850000e+01	3.570485e-02
2.860000e+01	3.651757e-02
2.870000e+01	3.742989e-02
2.880000e+01	3.840090e-02
2.890000e+01	3.941940e-02
2.900000e+01	4.086608e-02
2.910000e+01	4.255634e-02
2.920000e+01	4.461923e-02
2.930000e+01	4.726050e-02
2.940000e+01	5.054950e-02
2.950000e+01	5.501314e-02
2.960000e+01	6.211632e-02
2.970000e+01	7.371051e-02
2.980000e+01	9.683485e-02
