#header: N=2	 eta=0.200000	TIME_MAX=30	TERM_TIME=20000	TEMP=0.662998
1.000000e-01	4.049554e-03
2.000000e-01	9.761551e-03
3.000000e-01	1.591995e-02
4.000000e-01	2.225002e-02
5.000000e-01	2.865644e-02
6.000000e-01	3.510815e-02
7.000000e-01	4.159193e-02
8.000000e-01	4.807800e-02
9.000000e-01	5.452070e-02
1.000000e+00	6.087384e-02
1.100000e+00	6.705066e-02
1.200000e+00	7.296764e-02
1.300000e+00	7.864076e-02
1.400000e+00	8.407542e-02
1.500000e+00	8.927417e-02
1.600000e+00	9.423699e-02
1.700000e+00	9.891464e-02
1.800000e+00	1.033906e-01
1.900000e+00	1.075908e-01
2.000000e+00	1.115101e-01
2.100000e+00	1.151816e-01
2.200000e+00	1.186071e-01
2.300000e+00	1.218582e-01
2.400000e+00	1.248860e-01
2.500000e+00	1.276866e-01
2.600000e+00	1.303500e-01
2.700000e+00	1.329598e-01
2.800000e+00	1.354088e-01
2.900000e+00	1.376952e-01
3.000000e+00	1.398544e-01
3.100000e+00	1.418195e-01
3.200000e+00	1.437397e-01
3.300000e+00	1.455084e-01
3.400000e+00	1.471601e-01
3.500000e+00	1.486663e-01
3.600000e+00	1.500293e-01
3.700000e+00	1.512479e-01
3.800000e+00	1.523487e-01
3.900000e+00	1.533970e-01
4.000000e+00	1.543414e-01
4.100000e+00	1.552488e-01
4.200000e+00	1.560893e-01
4.300000e+00	1.568771e-01
4.400000e+00	1.577288e-01
4.500000e+00	1.585576e-01
4.600000e+00	1.592945e-01
4.700000e+00	1.600269e-01
4.800000e+00	1.606841e-01
4.900000e+00	1.613340e-01
5.000000e+00	1.619503e-01
5.100000e+00	1.623901e-01
5.200000e+00	1.627424e-01
5.300000e+00	1.631698e-01
5.400000e+00	1.636501e-01
5.500000e+00	1.641956e-01
5.600000e+00	1.647601e-01
5.700000e+00	1.652413e-01
5.800000e+00	1.655618e-01
5.900000e+00	1.658033e-01
6.000000e+00	1.660013e-01
6.100000e+00	1.662070e-01
6.200000e+00	1.664031e-01
6.300000e+00	1.665468e-01
6.400000e+00	1.666300e-01
6.500000e+00	1.667309e-01
6.600000e+00	1.667650e-01
6.700000e+00	1.668257e-01
6.800000e+00	1.669548e-01
6.900000e+00	1.670332e-01
7.000000e+00	1.671010e-01
7.100000e+00	1.671230e-01
7.200000e+00	1.672872e-01
7.300000e+00	1.674936e-01
7.400000e+00	1.676461e-01
7.500000e+00	1.677206e-01
7.600000e+00	1.677191e-01
7.700000e+00	1.676848e-01
7.800000e+00	1.676409e-01
7.900000e+00	1.676896e-01
8.000000e+00	1.676744e-01
8.100000e+00	1.677230e-01
8.200000e+00	1.678323e-01
8.300000e+00	1.679167e-01
8.400000e+00	1.680167e-01
8.500000e+00	1.680883e-01
8.600000e+00	1.682678e-01
8.700000e+00	1.684538e-01
8.800000e+00	1.686676e-01
8.900000e+00	1.687764e-01
9.000000e+00	1.690113e-01
9.100000e+00	1.692774e-01
9.200000e+00	1.695460e-01
9.300000e+00	1.696696e-01
9.400000e+00	1.697946e-01
9.500000e+00	1.697995e-01
9.600000e+00	1.697303e-01
9.700000e+00	1.698206e-01
9.800000e+00	1.698891e-01
9.900000e+00	1.699418e-01
1.000000e+01	1.698950e-01
1.010000e+01	1.698648e-01
1.020000e+01	1.698540e-01
1.030000e+01	1.698691e-01
1.040000e+01	1.698526e-01
1.050000e+01	1.699702e-01
1.060000e+01	1.699881e-01
1.070000e+01	1.699908e-01
1.080000e+01	1.699303e-01
1.090000e+01	1.699080e-01
1.100000e+01	1.698116e-01
1.110000e+01	1.696633e-01
1.120000e+01	1.694443e-01
1.130000e+01	1.693556e-01
1.140000e+01	1.692574e-01
1.150000e+01	1.691127e-01
1.160000e+01	1.688882e-01
1.170000e+01	1.687189e-01
1.180000e+01	1.684624e-01
1.190000e+01	1.681165e-01
1.200000e+01	1.677575e-01
1.210000e+01	1.674493e-01
1.220000e+01	1.670914e-01
1.230000e+01	1.667813e-01
1.240000e+01	1.665319e-01
1.250000e+01	1.663644e-01
1.260000e+01	1.662309e-01
1.270000e+01	1.661271e-01
1.280000e+01	1.661657e-01
1.290000e+01	1.662215e-01
1.300000e+01	1.662504e-01
1.310000e+01	1.662867e-01
1.320000e+01	1.663293e-01
1.330000e+01	1.664906e-01
1.340000e+01	1.665604e-01
1.350000e+01	1.666418e-01
1.360000e+01	1.666821e-01
1.370000e+01	1.667789e-01
1.380000e+01	1.668380e-01
1.390000e+01	1.669053e-01
1.400000e+01	1.669471e-01
1.410000e+01	1.670398e-01
1.420000e+01	1.672635e-01
1.430000e+01	1.674892e-01
1.440000e+01	1.677189e-01
1.450000e+01	1.678351e-01
1.460000e+01	1.678367e-01
1.470000e+01	1.678697e-01
1.480000e+01	1.679463e-01
1.490000e+01	1.679483e-01
1.500000e+01	1.678459e-01
1.510000e+01	1.676114e-01
1.520000e+01	1.672735e-01
1.530000e+01	1.670594e-01
1.540000e+01	1.668755e-01
1.550000e+01	1.667827e-01
1.560000e+01	1.667769e-01
1.570000e+01	1.667826e-01
1.580000e+01	1.668931e-01
1.590000e+01	1.669511e-01
1.600000e+01	1.670412e-01
1.610000e+01	1.671366e-01
1.620000e+01	1.672621e-01
1.630000e+01	1.673275e-01
1.640000e+01	1.673862e-01
1.650000e+01	1.673534e-01
1.660000e+01	1.672279e-01
1.670000e+01	1.670993e-01
1.680000e+01	1.669593e-01
1.690000e+01	1.669425e-01
1.700000e+01	1.669166e-01
1.710000e+01	1.667924e-01
1.720000e+01	1.666521e-01
1.730000e+01	1.665953e-01
1.740000e+01	1.663884e-01
1.750000e+01	1.661441e-01
1.760000e+01	1.659787e-01
1.770000e+01	1.658807e-01
1.780000e+01	1.657389e-01
1.790000e+01	1.655798e-01
1.800000e+01	1.654115e-01
1.810000e+01	1.653197e-01
1.820000e+01	1.652719e-01
1.830000e+01	1.651871e-01
1.840000e+01	1.650148e-01
1.850000e+01	1.648497e-01
1.860000e+01	1.646806e-01
1.870000e+01	1.645388e-01
1.880000e+01	1.643645e-01
1.890000e+01	1.642809e-01
1.900000e+01	1.643313e-01
1.910000e+01	1.644554e-01
1.920000e+01	1.644919e-01
1.930000e+01	1.645146e-01
1.940000e+01	1.645944e-01
1.950000e+01	1.646190e-01
1.960000e+01	1.647890e-01
1.970000e+01	1.649858e-01
1.980000e+01	1.649557e-01
1.990000e+01	1.649299e-01
2.000000e+01	1.650777e-01
2.010000e+01	1.652825e-01
2.020000e+01	1.654699e-01
2.030000e+01	1.655901e-01
2.040000e+01	1.656263e-01
2.050000e+01	1.656349e-01
2.060000e+01	1.656415e-01
2.070000e+01	1.656446e-01
2.080000e+01	1.655804e-01
2.090000e+01	1.655982e-01
2.100000e+01	1.657234e-01
2.110000e+01	1.656815e-01
2.120000e+01	1.655644e-01
2.130000e+01	1.653734e-01
2.140000e+01	1.652355e-01
2.150000e+01	1.648039e-01
2.160000e+01	1.646757e-01
2.170000e+01	1.644273e-01
2.180000e+01	1.640453e-01
2.190000e+01	1.637529e-01
2.200000e+01	1.635036e-01
2.210000e+01	1.631482e-01
2.220000e+01	1.629564e-01
2.230000e+01	1.629332e-01
2.240000e+01	1.629862e-01
2.250000e+01	1.631153e-01
2.260000e+01	1.629861e-01
2.270000e+01	1.628405e-01
2.280000e+01	1.628050e-01
2.290000e+01	1.627377e-01
2.300000e+01	1.626889e-01
2.310000e+01	1.625129e-01
2.320000e+01	1.624845e-01
2.330000e+01	1.625285e-01
2.340000e+01	1.627875e-01
2.350000e+01	1.630834e-01
2.360000e+01	1.633229e-01
2.370000e+01	1.635074e-01
2.380000e+01	1.638088e-01
2.390000e+01	1.639325e-01
2.400000e+01	1.639638e-01
2.410000e+01	1.640186e-01
2.420000e+01	1.642991e-01
2.430000e+01	1.648371e-01
2.440000e+01	1.654551e-01
2.450000e+01	1.658411e-01
2.460000e+01	1.662710e-01
2.470000e+01	1.666390e-01
2.480000e+01	1.668760e-01
2.490000e+01	1.672418e-01
2.500000e+01	1.673216e-01
2.510000e+01	1.671686e-01
2.520000e+01	1.670380e-01
2.530000e+01	1.671129e-01
2.540000e+01	1.675217e-01
2.550000e+01	1.677154e-01
2.560000e+01	1.680017e-01
2.570000e+01	1.681222e-01
2.580000e+01	1.682398e-01
2.590000e+01	1.683321e-01
2.600000e+01	1.682526e-01
2.610000e+01	1.684776e-01
2.620000e+01	1.688114e-01
2.630000e+01	1.692572e-01
2.640000e+01	1.698223e-01
2.650000e+01	1.701153e-01
2.660000e+01	1.703800e-01
2.670000e+01	1.706343e-01
2.680000e+01	1.706985e-01
2.690000e+01	1.704443e-01
2.700000e+01	1.703558e-01
2.710000e+01	1.705209e-01
2.720000e+01	1.706582e-01
2.730000e+01	1.708243e-01
2.740000e+01	1.708844e-01
2.750000e+01	1.707666e-01
2.760000e+01	1.705007e-01
2.770000e+01	1.700468e-01
2.780000e+01	1.696231e-01
2.790000e+01	1.693844e-01
2.800000e+01	1.694090e-01
2.810000e+01	1.695728e-01
2.820000e+01	1.698678e-01
2.830000e+01	1.701200e-01
2.840000e+01	1.708698e-01
2.850000e+01	1.717245e-01
2.860000e+01	1.724999e-01
2.870000e+01	1.732246e-01
2.880000e+01	1.736208e-01
2.890000e+01	1.737644e-01
2.900000e+01	1.736069e-01
2.910000e+01	1.728394e-01
2.920000e+01	1.720446e-01
2.930000e+01	1.705671e-01
2.940000e+01	1.689588e-01
2.950000e+01	1.678943e-01
2.960000e+01	1.671951e-01
2.970000e+01	1.656541e-01
2.980000e+01	1.639967e-01
