#header: N=2	 eta=0.205000	TIME_MAX=30	TERM_TIME=20000	TEMP=0.636753
1.000000e-01	3.914348e-03
2.000000e-01	9.330599e-03
3.000000e-01	1.513858e-02
4.000000e-01	2.109676e-02
5.000000e-01	2.714420e-02
6.000000e-01	3.323811e-02
7.000000e-01	3.934904e-02
8.000000e-01	4.548832e-02
9.000000e-01	5.158980e-02
1.000000e+00	5.761514e-02
1.100000e+00	6.349535e-02
1.200000e+00	6.921397e-02
1.300000e+00	7.474765e-02
1.400000e+00	8.001607e-02
1.500000e+00	8.505447e-02
1.600000e+00	8.985207e-02
1.700000e+00	9.438482e-02
1.800000e+00	9.866844e-02
1.900000e+00	1.027530e-01
2.000000e+00	1.066112e-01
2.100000e+00	1.102772e-01
2.200000e+00	1.137641e-01
2.300000e+00	1.171096e-01
2.400000e+00	1.202646e-01
2.500000e+00	1.231902e-01
2.600000e+00	1.259262e-01
2.700000e+00	1.284885e-01
2.800000e+00	1.308663e-01
2.900000e+00	1.330131e-01
3.000000e+00	1.350237e-01
3.100000e+00	1.368998e-01
3.200000e+00	1.386752e-01
3.300000e+00	1.402758e-01
3.400000e+00	1.417991e-01
3.500000e+00	1.432369e-01
3.600000e+00	1.445482e-01
3.700000e+00	1.457766e-01
3.800000e+00	1.469074e-01
3.900000e+00	1.479970e-01
4.000000e+00	1.490117e-01
4.100000e+00	1.498704e-01
4.200000e+00	1.507413e-01
4.300000e+00	1.515909e-01
4.400000e+00	1.523925e-01
4.500000e+00	1.531496e-01
4.600000e+00	1.538117e-01
4.700000e+00	1.544845e-01
4.800000e+00	1.551248e-01
4.900000e+00	1.556190e-01
5.000000e+00	1.559654e-01
5.100000e+00	1.563123e-01
5.200000e+00	1.567108e-01
5.300000e+00	1.571739e-01
5.400000e+00	1.576845e-01
5.500000e+00	1.581650e-01
5.600000e+00	1.585990e-01
5.700000e+00	1.590043e-01
5.800000e+00	1.593630e-01
5.900000e+00	1.596507e-01
6.000000e+00	1.600320e-01
6.100000e+00	1.604855e-01
6.200000e+00	1.608649e-01
6.300000e+00	1.610849e-01
6.400000e+00	1.612177e-01
6.500000e+00	1.612821e-01
6.600000e+00	1.614464e-01
6.700000e+00	1.616415e-01
6.800000e+00	1.618901e-01
6.900000e+00	1.621143e-01
7.000000e+00	1.623563e-01
7.100000e+00	1.625811e-01
7.200000e+00	1.628830e-01
7.300000e+00	1.632198e-01
7.400000e+00	1.635096e-01
7.500000e+00	1.637904e-01
7.600000e+00	1.640150e-01
7.700000e+00	1.641420e-01
7.800000e+00	1.642409e-01
7.900000e+00	1.643572e-01
8.000000e+00	1.643183e-01
8.100000e+00	1.642828e-01
8.200000e+00	1.642530e-01
8.300000e+00	1.642055e-01
8.400000e+00	1.641001e-01
8.500000e+00	1.641663e-01
8.600000e+00	1.641693e-01
8.700000e+00	1.641321e-01
8.800000e+00	1.641508e-01
8.900000e+00	1.641504e-01
9.000000e+00	1.641310e-01
9.100000e+00	1.641145e-01
9.200000e+00	1.640462e-01
9.300000e+00	1.639644e-01
9.400000e+00	1.639570e-01
9.500000e+00	1.639558e-01
9.600000e+00	1.640256e-01
9.700000e+00	1.641356e-01
9.800000e+00	1.643776e-01
9.900000e+00	1.646972e-01
1.000000e+01	1.650454e-01
1.010000e+01	1.653193e-01
1.020000e+01	1.655785e-01
1.030000e+01	1.658808e-01
1.040000e+01	1.662797e-01
1.050000e+01	1.666005e-01
1.060000e+01	1.668459e-01
1.070000e+01	1.669904e-01
1.080000e+01	1.671636e-01
1.090000e+01	1.671798e-01
1.100000e+01	1.672572e-01
1.110000e+01	1.673117e-01
1.120000e+01	1.674213e-01
1.130000e+01	1.676085e-01
1.140000e+01	1.676867e-01
1.150000e+01	1.675948e-01
1.160000e+01	1.674033e-01
1.170000e+01	1.672457e-01
1.180000e+01	1.670641e-01
1.190000e+01	1.669089e-01
1.200000e+01	1.668024e-01
1.210000e+01	1.668026e-01
1.220000e+01	1.668231e-01
1.230000e+01	1.666852e-01
1.240000e+01	1.664695e-01
1.250000e+01	1.662664e-01
1.260000e+01	1.662031e-01
1.270000e+01	1.661258e-01
1.280000e+01	1.660379e-01
1.290000e+01	1.660912e-01
1.300000e+01	1.661005e-01
1.310000e+01	1.660642e-01
1.320000e+01	1.661108e-01
1.330000e+01	1.663091e-01
1.340000e+01	1.665279e-01
1.350000e+01	1.665849e-01
1.360000e+01	1.663803e-01
1.370000e+01	1.662948e-01
1.380000e+01	1.663464e-01
1.390000e+01	1.665045e-01
1.400000e+01	1.666241e-01
1.410000e+01	1.666274e-01
1.420000e+01	1.666520e-01
1.430000e+01	1.665793e-01
1.440000e+01	1.664108e-01
1.450000e+01	1.663327e-01
1.460000e+01	1.662419e-01
1.470000e+01	1.662160e-01
1.480000e+01	1.662023e-01
1.490000e+01	1.661231e-01
1.500000e+01	1.660316e-01
1.510000e+01	1.658757e-01
1.520000e+01	1.658496e-01
1.530000e+01	1.658420e-01
1.540000e+01	1.660018e-01
1.550000e+01	1.661704e-01
1.560000e+01	1.663085e-01
1.570000e+01	1.664725e-01
1.580000e+01	1.665518e-01
1.590000e+01	1.665324e-01
1.600000e+01	1.664598e-01
1.610000e+01	1.665724e-01
1.620000e+01	1.668162e-01
1.630000e+01	1.671128e-01
1.640000e+01	1.671961e-01
1.650000e+01	1.672729e-01
1.660000e+01	1.673905e-01
1.670000e+01	1.674512e-01
1.680000e+01	1.673309e-01
1.690000e+01	1.671037e-01
1.700000e+01	1.668447e-01
1.710000e+01	1.665925e-01
1.720000e+01	1.664277e-01
1.730000e+01	1.663480e-01
1.740000e+01	1.662669e-01
1.750000e+01	1.662656e-01
1.760000e+01	1.663410e-01
1.770000e+01	1.664252e-01
1.780000e+01	1.663549e-01
1.790000e+01	1.662247e-01
1.800000e+01	1.660234e-01
1.810000e+01	1.658497e-01
1.820000e+01	1.657197e-01
1.830000e+01	1.656310e-01
1.840000e+01	1.655401e-01
1.850000e+01	1.655622e-01
1.860000e+01	1.654584e-01
1.870000e+01	1.652932e-01
1.880000e+01	1.651646e-01
1.890000e+01	1.649988e-01
1.900000e+01	1.649634e-01
1.910000e+01	1.649547e-01
1.920000e+01	1.649555e-01
1.930000e+01	1.651383e-01
1.940000e+01	1.654476e-01
1.950000e+01	1.658138e-01
1.960000e+01	1.659590e-01
1.970000e+01	1.661187e-01
1.980000e+01	1.662344e-01
1.990000e+01	1.662839e-01
2.000000e+01	1.663732e-01
2.010000e+01	1.665249e-01
2.020000e+01	1.667706e-01
2.030000e+01	1.669468e-01
2.040000e+01	1.670814e-01
2.050000e+01	1.671628e-01
2.060000e+01	1.672607e-01
2.070000e+01	1.673695e-01
2.080000e+01	1.674282e-01
2.090000e+01	1.674646e-01
2.100000e+01	1.674703e-01
2.110000e+01	1.673991e-01
2.120000e+01	1.672839e-01
2.130000e+01	1.669671e-01
2.140000e+01	1.666990e-01
2.150000e+01	1.666126e-01
2.160000e+01	1.665428e-01
2.170000e+01	1.664052e-01
2.180000e+01	1.661820e-01
2.190000e+01	1.660561e-01
2.200000e+01	1.657927e-01
2.210000e+01	1.655376e-01
2.220000e+01	1.652346e-01
2.230000e+01	1.649759e-01
2.240000e+01	1.648811e-01
2.250000e+01	1.648907e-01
2.260000e+01	1.649132e-01
2.270000e+01	1.650689e-01
2.280000e+01	1.648236e-01
2.290000e+01	1.644845e-01
2.300000e+01	1.642773e-01
2.310000e+01	1.639091e-01
2.320000e+01	1.635354e-01
2.330000e+01	1.631964e-01
2.340000e+01	1.626603e-01
2.350000e+01	1.619981e-01
2.360000e+01	1.615424e-01
2.370000e+01	1.611899e-01
2.380000e+01	1.610138e-01
2.390000e+01	1.611408e-01
2.400000e+01	1.613861e-01
2.410000e+01	1.613601e-01
2.420000e+01	1.614909e-01
2.430000e+01	1.613255e-01
2.440000e+01	1.613609e-01
2.450000e+01	1.614126e-01
2.460000e+01	1.614971e-01
2.470000e+01	1.616999e-01
2.480000e+01	1.618008e-01
2.490000e+01	1.617390e-01
2.500000e+01	1.616431e-01
2.510000e+01	1.615844e-01
2.520000e+01	1.614746e-01
2.530000e+01	1.614360e-01
2.540000e+01	1.612655e-01
2.550000e+01	1.611019e-01
2.560000e+01	1.608894e-01
2.570000e+01	1.608082e-01
2.580000e+01	1.606711e-01
2.590000e+01	1.605066e-01
2.600000e+01	1.604503e-01
2.610000e+01	1.603291e-01
2.620000e+01	1.599615e-01
2.630000e+01	1.596780e-01
2.640000e+01	1.593713e-01
2.650000e+01	1.592075e-01
2.660000e+01	1.588697e-01
2.670000e+01	1.586004e-01
2.680000e+01	1.584360e-01
2.690000e+01	1.582436e-01
2.700000e+01	1.583537e-01
2.710000e+01	1.585717e-01
2.720000e+01	1.586271e-01
2.730000e+01	1.588239e-01
2.740000e+01	1.590077e-01
2.750000e+01	1.595640e-01
2.760000e+01	1.599113e-01
2.770000e+01	1.599199e-01
2.780000e+01	1.601722e-01
2.790000e+01	1.605134e-01
2.800000e+01	1.604095e-01
2.810000e+01	1.600442e-01
2.820000e+01	1.595465e-01
2.830000e+01	1.592575e-01
2.840000e+01	1.592216e-01
2.850000e+01	1.595588e-01
2.860000e+01	1.598043e-01
2.870000e+01	1.601197e-01
2.880000e+01	1.608697e-01
2.890000e+01	1.617412e-01
2.900000e+01	1.624236e-01
2.910000e+01	1.628471e-01
2.920000e+01	1.630900e-01
2.930000e+01	1.626570e-01
2.940000e+01	1.620231e-01
2.950000e+01	1.610858e-01
2.960000e+01	1.598337e-01
2.970000e+01	1.589318e-01
2.980000e+01	1.594486e-01
