#header: N=2	 eta=0.230000	TIME_MAX=30	TERM_TIME=20000	TEMP=0.657273
1.000000e-01	3.781694e-03
2.000000e-01	8.870429e-03
3.000000e-01	1.434819e-02
4.000000e-01	2.005364e-02
5.000000e-01	2.590050e-02
6.000000e-01	3.186709e-02
7.000000e-01	3.792859e-02
8.000000e-01	4.401982e-02
9.000000e-01	5.008219e-02
1.000000e+00	5.608742e-02
1.100000e+00	6.197769e-02
1.200000e+00	6.768874e-02
1.300000e+00	7.320174e-02
1.400000e+00	7.855262e-02
1.500000e+00	8.370714e-02
1.600000e+00	8.865546e-02
1.700000e+00	9.333076e-02
1.800000e+00	9.777495e-02
1.900000e+00	1.020175e-01
2.000000e+00	1.060313e-01
2.100000e+00	1.098053e-01
2.200000e+00	1.133830e-01
2.300000e+00	1.167937e-01
2.400000e+00	1.198997e-01
2.500000e+00	1.228157e-01
2.600000e+00	1.255338e-01
2.700000e+00	1.280792e-01
2.800000e+00	1.304850e-01
2.900000e+00	1.327566e-01
3.000000e+00	1.349509e-01
3.100000e+00	1.370364e-01
3.200000e+00	1.389286e-01
3.300000e+00	1.406626e-01
3.400000e+00	1.422143e-01
3.500000e+00	1.437174e-01
3.600000e+00	1.451441e-01
3.700000e+00	1.465598e-01
3.800000e+00	1.479275e-01
3.900000e+00	1.492724e-01
4.000000e+00	1.504329e-01
4.100000e+00	1.515176e-01
4.200000e+00	1.524996e-01
4.300000e+00	1.534708e-01
4.400000e+00	1.544696e-01
4.500000e+00	1.552432e-01
4.600000e+00	1.560441e-01
4.700000e+00	1.568401e-01
4.800000e+00	1.575483e-01
4.900000e+00	1.581365e-01
5.000000e+00	1.586424e-01
5.100000e+00	1.590547e-01
5.200000e+00	1.594507e-01
5.300000e+00	1.599169e-01
5.400000e+00	1.602918e-01
5.500000e+00	1.605916e-01
5.600000e+00	1.608482e-01
5.700000e+00	1.611559e-01
5.800000e+00	1.614519e-01
5.900000e+00	1.617240e-01
6.000000e+00	1.620205e-01
6.100000e+00	1.622845e-01
6.200000e+00	1.625420e-01
6.300000e+00	1.628265e-01
6.400000e+00	1.630807e-01
6.500000e+00	1.634139e-01
6.600000e+00	1.637255e-01
6.700000e+00	1.639488e-01
6.800000e+00	1.641446e-01
6.900000e+00	1.644303e-01
7.000000e+00	1.646246e-01
7.100000e+00	1.646677e-01
7.200000e+00	1.647487e-01
7.300000e+00	1.647979e-01
7.400000e+00	1.649089e-01
7.500000e+00	1.649787e-01
7.600000e+00	1.650176e-01
7.700000e+00	1.650849e-01
7.800000e+00	1.651279e-01
7.900000e+00	1.650721e-01
8.000000e+00	1.650679e-01
8.100000e+00	1.650453e-01
8.200000e+00	1.649640e-01
8.300000e+00	1.647190e-01
8.400000e+00	1.644286e-01
8.500000e+00	1.642146e-01
8.600000e+00	1.640903e-01
8.700000e+00	1.639726e-01
8.800000e+00	1.639370e-01
8.900000e+00	1.637957e-01
9.000000e+00	1.636171e-01
9.100000e+00	1.635019e-01
9.200000e+00	1.633609e-01
9.300000e+00	1.631894e-01
9.400000e+00	1.630951e-01
9.500000e+00	1.630918e-01
9.600000e+00	1.632679e-01
9.700000e+00	1.635244e-01
9.800000e+00	1.636899e-01
9.900000e+00	1.637661e-01
1.000000e+01	1.638143e-01
1.010000e+01	1.638681e-01
1.020000e+01	1.638880e-01
1.030000e+01	1.639898e-01
1.040000e+01	1.639879e-01
1.050000e+01	1.640115e-01
1.060000e+01	1.639299e-01
1.070000e+01	1.639415e-01
1.080000e+01	1.639280e-01
1.090000e+01	1.638592e-01
1.100000e+01	1.636788e-01
1.110000e+01	1.633654e-01
1.120000e+01	1.631488e-01
1.130000e+01	1.629639e-01
1.140000e+01	1.628894e-01
1.150000e+01	1.629137e-01
1.160000e+01	1.629406e-01
1.170000e+01	1.630304e-01
1.180000e+01	1.632269e-01
1.190000e+01	1.634507e-01
1.200000e+01	1.636570e-01
1.210000e+01	1.639286e-01
1.220000e+01	1.642499e-01
1.230000e+01	1.645583e-01
1.240000e+01	1.647171e-01
1.250000e+01	1.648218e-01
1.260000e+01	1.650091e-01
1.270000e+01	1.652453e-01
1.280000e+01	1.655498e-01
1.290000e+01	1.658122e-01
1.300000e+01	1.660287e-01
1.310000e+01	1.663712e-01
1.320000e+01	1.666188e-01
1.330000e+01	1.667912e-01
1.340000e+01	1.669527e-01
1.350000e+01	1.671161e-01
1.360000e+01	1.671741e-01
1.370000e+01	1.672116e-01
1.380000e+01	1.672111e-01
1.390000e+01	1.672663e-01
1.400000e+01	1.672505e-01
1.410000e+01	1.671678e-01
1.420000e+01	1.670114e-01
1.430000e+01	1.667299e-01
1.440000e+01	1.664806e-01
1.450000e+01	1.661563e-01
1.460000e+01	1.657527e-01
1.470000e+01	1.653881e-01
1.480000e+01	1.650643e-01
1.490000e+01	1.649406e-01
1.500000e+01	1.649073e-01
1.510000e+01	1.647758e-01
1.520000e+01	1.647263e-01
1.530000e+01	1.646984e-01
1.540000e+01	1.647164e-01
1.550000e+01	1.648827e-01
1.560000e+01	1.651533e-01
1.570000e+01	1.654066e-01
1.580000e+01	1.655813e-01
1.590000e+01	1.656578e-01
1.600000e+01	1.657632e-01
1.610000e+01	1.658746e-01
1.620000e+01	1.658807e-01
1.630000e+01	1.658118e-01
1.640000e+01	1.657127e-01
1.650000e+01	1.656897e-01
1.660000e+01	1.657439e-01
1.670000e+01	1.657902e-01
1.680000e+01	1.657794e-01
1.690000e+01	1.657098e-01
1.700000e+01	1.657499e-01
1.710000e+01	1.658904e-01
1.720000e+01	1.660239e-01
1.730000e+01	1.663712e-01
1.740000e+01	1.665635e-01
1.750000e+01	1.666507e-01
1.760000e+01	1.666041e-01
1.770000e+01	1.665219e-01
1.780000e+01	1.663265e-01
1.790000e+01	1.662197e-01
1.800000e+01	1.660420e-01
1.810000e+01	1.660179e-01
1.820000e+01	1.661800e-01
1.830000e+01	1.663402e-01
1.840000e+01	1.664309e-01
1.850000e+01	1.665961e-01
1.860000e+01	1.666507e-01
1.870000e+01	1.667551e-01
1.880000e+01	1.668964e-01
1.890000e+01	1.671101e-01
1.900000e+01	1.672374e-01
1.910000e+01	1.674914e-01
1.920000e+01	1.678965e-01
1.930000e+01	1.681357e-01
1.940000e+01	1.682627e-01
1.950000e+01	1.684815e-01
1.960000e+01	1.686934e-01
1.970000e+01	1.686605e-01
1.980000e+01	1.685249e-01
1.990000e+01	1.683909e-01
2.000000e+01	1.682057e-01
2.010000e+01	1.680868e-01
2.020000e+01	1.680282e-01
2.030000e+01	1.678979e-01
2.040000e+01	1.677340e-01
2.050000e+01	1.678280e-01
2.060000e+01	1.678761e-01
2.070000e+01	1.679859e-01
2.080000e+01	1.681719e-01
2.090000e+01	1.681999e-01
2.100000e+01	1.682154e-01
2.110000e+01	1.681319e-01
2.120000e+01	1.682465e-01
2.130000e+01	1.682101e-01
2.140000e+01	1.681394e-01
2.150000e+01	1.680340e-01
2.160000e+01	1.678454e-01
2.170000e+01	1.677540e-01
2.180000e+01	1.678750e-01
2.190000e+01	1.679317e-01
2.200000e+01	1.677888e-01
2.210000e+01	1.677010e-01
2.220000e+01	1.677101e-01
2.230000e+01	1.676371e-01
2.240000e+01	1.674283e-01
2.250000e+01	1.673955e-01
2.260000e+01	1.674721e-01
2.270000e+01	1.675854e-01
2.280000e+01	1.677195e-01
2.290000e+01	1.679767e-01
2.300000e+01	1.681861e-01
2.310000e+01	1.683441e-01
2.320000e+01	1.686810e-01
2.330000e+01	1.690849e-01
2.340000e+01	1.694310e-01
2.350000e+01	1.698740e-01
2.360000e+01	1.702363e-01
2.370000e+01	1.702859e-01
2.380000e+01	1.702717e-01
2.390000e+01	1.701550e-01
2.400000e+01	1.703233e-01
2.410000e+01	1.707163e-01
2.420000e+01	1.709818e-01
2.430000e+01	1.711580e-01
2.440000e+01	1.713244e-01
2.450000e+01	1.715623e-01
2.460000e+01	1.719443e-01
2.470000e+01	1.721289e-01
2.480000e+01	1.724668e-01
2.490000e+01	1.727470e-01
2.500000e+01	1.730352e-01
2.510000e+01	1.735042e-01
2.520000e+01	1.741157e-01
2.530000e+01	1.749859e-01
2.540000e+01	1.755645e-01
2.550000e+01	1.758054e-01
2.560000e+01	1.756503e-01
2.570000e+01	1.755063e-01
2.580000e+01	1.752619e-01
2.590000e+01	1.751050e-01
2.600000e+01	1.749324e-01
2.610000e+01	1.745290e-01
2.620000e+01	1.742911e-01
2.630000e+01	1.739229e-01
2.640000e+01	1.737017e-01
2.650000e+01	1.735556e-01
2.660000e+01	1.731235e-01
2.670000e+01	1.726818e-01
2.680000e+01	1.723548e-01
2.690000e+01	1.720277e-01
2.700000e+01	1.715535e-01
2.710000e+01	1.710809e-01
2.720000e+01	1.705393e-01
2.730000e+01	1.701238e-01
2.740000e+01	1.700893e-01
2.750000e+01	1.697099e-01
2.760000e+01	1.692057e-01
2.770000e+01	1.688494e-01
2.780000e+01	1.684565e-01
2.790000e+01	1.677206e-01
2.800000e+01	1.671784e-01
2.810000e+01	1.667448e-01
2.820000e+01	1.664253e-01
2.830000e+01	1.661426e-01
2.840000e+01	1.661107e-01
2.850000e+01	1.664648e-01
2.860000e+01	1.667303e-01
2.870000e+01	1.671771e-01
2.880000e+01	1.673633e-01
2.890000e+01	1.677566e-01
2.900000e+01	1.673525e-01
2.910000e+01	1.666294e-01
2.920000e+01	1.656139e-01
2.930000e+01	1.650904e-01
2.940000e+01	1.646811e-01
2.950000e+01	1.644391e-01
2.960000e+01	1.639280e-01
2.970000e+01	1.634853e-01
2.980000e+01	1.644200e-01
