#header: N=2	 eta=0.250000	TIME_MAX=30	TERM_TIME=20000	TEMP=0.665172
1.000000e-01	3.680898e-03
2.000000e-01	8.498632e-03
3.000000e-01	1.362791e-02
4.000000e-01	1.888532e-02
5.000000e-01	2.419970e-02
6.000000e-01	2.960742e-02
7.000000e-01	3.510291e-02
8.000000e-01	4.062636e-02
9.000000e-01	4.617200e-02
1.000000e+00	5.169132e-02
1.100000e+00	5.710328e-02
1.200000e+00	6.240509e-02
1.300000e+00	6.760059e-02
1.400000e+00	7.261383e-02
1.500000e+00	7.744290e-02
1.600000e+00	8.204613e-02
1.700000e+00	8.647175e-02
1.800000e+00	9.070258e-02
1.900000e+00	9.474063e-02
2.000000e+00	9.861345e-02
2.100000e+00	1.022758e-01
2.200000e+00	1.057373e-01
2.300000e+00	1.090479e-01
2.400000e+00	1.121939e-01
2.500000e+00	1.151720e-01
2.600000e+00	1.180324e-01
2.700000e+00	1.207888e-01
2.800000e+00	1.233540e-01
2.900000e+00	1.257661e-01
3.000000e+00	1.280994e-01
3.100000e+00	1.302694e-01
3.200000e+00	1.323256e-01
3.300000e+00	1.342442e-01
3.400000e+00	1.359829e-01
3.500000e+00	1.376315e-01
3.600000e+00	1.392642e-01
3.700000e+00	1.408100e-01
3.800000e+00	1.421943e-01
3.900000e+00	1.435617e-01
4.000000e+00	1.448264e-01
4.100000e+00	1.460522e-01
4.200000e+00	1.472622e-01
4.300000e+00	1.484570e-01
4.400000e+00	1.494857e-01
4.500000e+00	1.504894e-01
4.600000e+00	1.515184e-01
4.700000e+00	1.526009e-01
4.800000e+00	1.536211e-01
4.900000e+00	1.546562e-01
5.000000e+00	1.557025e-01
5.100000e+00	1.566916e-01
5.200000e+00	1.577001e-01
5.300000e+00	1.586457e-01
5.400000e+00	1.594912e-01
5.500000e+00	1.602940e-01
5.600000e+00	1.610578e-01
5.700000e+00	1.617536e-01
5.800000e+00	1.623564e-01
5.900000e+00	1.629471e-01
6.000000e+00	1.634758e-01
6.100000e+00	1.639678e-01
6.200000e+00	1.644423e-01
6.300000e+00	1.648231e-01
6.400000e+00	1.652509e-01
6.500000e+00	1.656736e-01
6.600000e+00	1.660497e-01
6.700000e+00	1.664588e-01
6.800000e+00	1.668803e-01
6.900000e+00	1.672477e-01
7.000000e+00	1.674785e-01
7.100000e+00	1.676307e-01
7.200000e+00	1.677305e-01
7.300000e+00	1.678639e-01
7.400000e+00	1.678614e-01
7.500000e+00	1.678837e-01
7.600000e+00	1.678514e-01
7.700000e+00	1.678137e-01
7.800000e+00	1.677631e-01
7.900000e+00	1.677663e-01
8.000000e+00	1.678181e-01
8.100000e+00	1.678629e-01
8.200000e+00	1.677659e-01
8.300000e+00	1.676764e-01
8.400000e+00	1.675738e-01
8.500000e+00	1.674252e-01
8.600000e+00	1.673036e-01
8.700000e+00	1.671920e-01
8.800000e+00	1.671171e-01
8.900000e+00	1.670378e-01
9.000000e+00	1.668445e-01
9.100000e+00	1.665582e-01
9.200000e+00	1.663675e-01
9.300000e+00	1.661546e-01
9.400000e+00	1.659463e-01
9.500000e+00	1.657712e-01
9.600000e+00	1.656481e-01
9.700000e+00	1.655691e-01
9.800000e+00	1.655816e-01
9.900000e+00	1.655074e-01
1.000000e+01	1.655256e-01
1.010000e+01	1.655882e-01
1.020000e+01	1.656441e-01
1.030000e+01	1.657475e-01
1.040000e+01	1.658423e-01
1.050000e+01	1.659734e-01
1.060000e+01	1.661049e-01
1.070000e+01	1.662078e-01
1.080000e+01	1.663728e-01
1.090000e+01	1.665367e-01
1.100000e+01	1.666859e-01
1.110000e+01	1.669036e-01
1.120000e+01	1.670468e-01
1.130000e+01	1.671907e-01
1.140000e+01	1.673701e-01
1.150000e+01	1.674929e-01
1.160000e+01	1.676025e-01
1.170000e+01	1.676214e-01
1.180000e+01	1.676471e-01
1.190000e+01	1.676457e-01
1.200000e+01	1.676400e-01
1.210000e+01	1.676553e-01
1.220000e+01	1.677938e-01
1.230000e+01	1.678209e-01
1.240000e+01	1.677690e-01
1.250000e+01	1.675770e-01
1.260000e+01	1.674803e-01
1.270000e+01	1.673383e-01
1.280000e+01	1.671919e-01
1.290000e+01	1.670573e-01
1.300000e+01	1.669826e-01
1.310000e+01	1.668324e-01
1.320000e+01	1.666935e-01
1.330000e+01	1.664970e-01
1.340000e+01	1.664495e-01
1.350000e+01	1.663208e-01
1.360000e+01	1.660863e-01
1.370000e+01	1.658784e-01
1.380000e+01	1.658218e-01
1.390000e+01	1.657821e-01
1.400000e+01	1.656872e-01
1.410000e+01	1.655525e-01
1.420000e+01	1.654103e-01
1.430000e+01	1.653292e-01
1.440000e+01	1.650824e-01
1.450000e+01	1.649036e-01
1.460000e+01	1.648716e-01
1.470000e+01	1.648615e-01
1.480000e+01	1.648625e-01
1.490000e+01	1.647909e-01
1.500000e+01	1.645745e-01
1.510000e+01	1.644866e-01
1.520000e+01	1.643664e-01
1.530000e+01	1.643138e-01
1.540000e+01	1.643289e-01
1.550000e+01	1.644364e-01
1.560000e+01	1.645231e-01
1.570000e+01	1.646803e-01
1.580000e+01	1.647986e-01
1.590000e+01	1.649375e-01
1.600000e+01	1.651091e-01
1.610000e+01	1.650130e-01
1.620000e+01	1.648747e-01
1.630000e+01	1.648355e-01
1.640000e+01	1.647598e-01
1.650000e+01	1.647214e-01
1.660000e+01	1.645634e-01
1.670000e+01	1.645317e-01
1.680000e+01	1.645552e-01
1.690000e+01	1.645126e-01
1.700000e+01	1.644949e-01
1.710000e+01	1.643761e-01
1.720000e+01	1.643812e-01
1.730000e+01	1.643513e-01
1.740000e+01	1.643276e-01
1.750000e+01	1.641218e-01
1.760000e+01	1.638672e-01
1.770000e+01	1.636507e-01
1.780000e+01	1.634547e-01
1.790000e+01	1.633252e-01
1.800000e+01	1.633549e-01
1.810000e+01	1.633525e-01
1.820000e+01	1.633921e-01
1.830000e+01	1.634022e-01
1.840000e+01	1.633824e-01
1.850000e+01	1.633044e-01
1.860000e+01	1.631976e-01
1.870000e+01	1.631305e-01
1.880000e+01	1.630817e-01
1.890000e+01	1.629973e-01
1.900000e+01	1.628859e-01
1.910000e+01	1.629807e-01
1.920000e+01	1.630852e-01
1.930000e+01	1.630887e-01
1.940000e+01	1.630659e-01
1.950000e+01	1.629733e-01
1.960000e+01	1.628231e-01
1.970000e+01	1.626985e-01
1.980000e+01	1.626300e-01
1.990000e+01	1.625271e-01
2.000000e+01	1.624180e-01
2.010000e+01	1.622800e-01
2.020000e+01	1.621781e-01
2.030000e+01	1.621639e-01
2.040000e+01	1.622232e-01
2.050000e+01	1.622896e-01
2.060000e+01	1.622977e-01
2.070000e+01	1.624110e-01
2.080000e+01	1.625639e-01
2.090000e+01	1.627114e-01
2.100000e+01	1.628060e-01
2.110000e+01	1.627982e-01
2.120000e+01	1.629483e-01
2.130000e+01	1.630919e-01
2.140000e+01	1.631763e-01
2.150000e+01	1.631359e-01
2.160000e+01	1.631612e-01
2.170000e+01	1.632781e-01
2.180000e+01	1.632704e-01
2.190000e+01	1.631614e-01
2.200000e+01	1.630509e-01
2.210000e+01	1.629193e-01
2.220000e+01	1.626539e-01
2.230000e+01	1.624631e-01
2.240000e+01	1.622312e-01
2.250000e+01	1.621837e-01
2.260000e+01	1.621548e-01
2.270000e+01	1.621174e-01
2.280000e+01	1.622317e-01
2.290000e+01	1.624482e-01
2.300000e+01	1.625942e-01
2.310000e+01	1.627429e-01
2.320000e+01	1.628912e-01
2.330000e+01	1.630286e-01
2.340000e+01	1.631855e-01
2.350000e+01	1.631098e-01
2.360000e+01	1.630193e-01
2.370000e+01	1.629851e-01
2.380000e+01	1.629288e-01
2.390000e+01	1.629086e-01
2.400000e+01	1.627388e-01
2.410000e+01	1.626329e-01
2.420000e+01	1.626535e-01
2.430000e+01	1.624652e-01
2.440000e+01	1.624614e-01
2.450000e+01	1.624072e-01
2.460000e+01	1.623523e-01
2.470000e+01	1.622356e-01
2.480000e+01	1.620749e-01
2.490000e+01	1.621768e-01
2.500000e+01	1.622518e-01
2.510000e+01	1.623724e-01
2.520000e+01	1.625723e-01
2.530000e+01	1.627497e-01
2.540000e+01	1.630548e-01
2.550000e+01	1.633613e-01
2.560000e+01	1.636752e-01
2.570000e+01	1.641261e-01
2.580000e+01	1.645865e-01
2.590000e+01	1.649633e-01
2.600000e+01	1.652542e-01
2.610000e+01	1.653544e-01
2.620000e+01	1.653033e-01
2.630000e+01	1.651682e-01
2.640000e+01	1.651038e-01
2.650000e+01	1.647821e-01
2.660000e+01	1.646667e-01
2.670000e+01	1.641985e-01
2.680000e+01	1.637091e-01
2.690000e+01	1.637109e-01
2.700000e+01	1.638088e-01
2.710000e+01	1.639321e-01
2.720000e+01	1.638900e-01
2.730000e+01	1.638036e-01
2.740000e+01	1.638916e-01
2.750000e+01	1.642319e-01
2.760000e+01	1.643781e-01
2.770000e+01	1.648810e-01
2.780000e+01	1.653426e-01
2.790000e+01	1.654890e-01
2.800000e+01	1.653249e-01
2.810000e+01	1.650987e-01
2.820000e+01	1.646997e-01
2.830000e+01	1.646642e-01
2.840000e+01	1.647161e-01
2.850000e+01	1.652134e-01
2.860000e+01	1.655991e-01
2.870000e+01	1.654118e-01
2.880000e+01	1.653056e-01
2.890000e+01	1.653595e-01
2.900000e+01	1.657546e-01
2.910000e+01	1.661058e-01
2.920000e+01	1.663024e-01
2.930000e+01	1.661759e-01
2.940000e+01	1.669136e-01
2.950000e+01	1.681379e-01
2.960000e+01	1.697333e-01
2.970000e+01	1.713716e-01
2.980000e+01	1.707016e-01
