#header: N=2	 eta=0.250000	TIME_MAX=30	TERM_TIME=20000	TEMP=0.638720
1.000000e-01	3.610137e-03
2.000000e-01	8.312991e-03
3.000000e-01	1.334932e-02
4.000000e-01	1.854929e-02
5.000000e-01	2.387659e-02
6.000000e-01	2.931923e-02
7.000000e-01	3.485165e-02
8.000000e-01	4.044189e-02
9.000000e-01	4.607767e-02
1.000000e+00	5.166084e-02
1.100000e+00	5.712975e-02
1.200000e+00	6.251688e-02
1.300000e+00	6.777837e-02
1.400000e+00	7.288298e-02
1.500000e+00	7.784105e-02
1.600000e+00	8.261724e-02
1.700000e+00	8.710642e-02
1.800000e+00	9.134850e-02
1.900000e+00	9.543221e-02
2.000000e+00	9.931183e-02
2.100000e+00	1.030552e-01
2.200000e+00	1.066056e-01
2.300000e+00	1.100374e-01
2.400000e+00	1.132897e-01
2.500000e+00	1.164335e-01
2.600000e+00	1.194275e-01
2.700000e+00	1.222611e-01
2.800000e+00	1.250210e-01
2.900000e+00	1.276101e-01
3.000000e+00	1.299549e-01
3.100000e+00	1.321611e-01
3.200000e+00	1.341645e-01
3.300000e+00	1.360705e-01
3.400000e+00	1.378240e-01
3.500000e+00	1.395019e-01
3.600000e+00	1.410887e-01
3.700000e+00	1.425488e-01
3.800000e+00	1.439259e-01
3.900000e+00	1.452349e-01
4.000000e+00	1.464596e-01
4.100000e+00	1.476490e-01
4.200000e+00	1.487410e-01
4.300000e+00	1.497719e-01
4.400000e+00	1.506688e-01
4.500000e+00	1.514920e-01
4.600000e+00	1.522627e-01
4.700000e+00	1.529970e-01
4.800000e+00	1.536848e-01
4.900000e+00	1.543804e-01
5.000000e+00	1.550041e-01
5.100000e+00	1.555936e-01
5.200000e+00	1.560960e-01
5.300000e+00	1.565617e-01
5.400000e+00	1.569707e-01
5.500000e+00	1.574136e-01
5.600000e+00	1.579280e-01
5.700000e+00	1.584866e-01
5.800000e+00	1.589787e-01
5.900000e+00	1.594789e-01
6.000000e+00	1.599627e-01
6.100000e+00	1.604895e-01
6.200000e+00	1.609807e-01
6.300000e+00	1.614499e-01
6.400000e+00	1.618813e-01
6.500000e+00	1.622624e-01
6.600000e+00	1.626268e-01
6.700000e+00	1.629108e-01
6.800000e+00	1.631435e-01
6.900000e+00	1.634341e-01
7.000000e+00	1.637132e-01
7.100000e+00	1.639654e-01
7.200000e+00	1.642504e-01
7.300000e+00	1.645813e-01
7.400000e+00	1.650455e-01
7.500000e+00	1.654993e-01
7.600000e+00	1.658317e-01
7.700000e+00	1.661519e-01
7.800000e+00	1.663897e-01
7.900000e+00	1.666951e-01
8.000000e+00	1.669929e-01
8.100000e+00	1.673129e-01
8.200000e+00	1.676349e-01
8.300000e+00	1.679602e-01
8.400000e+00	1.682443e-01
8.500000e+00	1.685154e-01
8.600000e+00	1.687070e-01
8.700000e+00	1.689012e-01
8.800000e+00	1.691092e-01
8.900000e+00	1.692985e-01
9.000000e+00	1.693469e-01
9.100000e+00	1.694085e-01
9.200000e+00	1.694929e-01
9.300000e+00	1.695818e-01
9.400000e+00	1.695774e-01
9.500000e+00	1.696553e-01
9.600000e+00	1.697560e-01
9.700000e+00	1.699049e-01
9.800000e+00	1.700372e-01
9.900000e+00	1.701419e-01
1.000000e+01	1.702101e-01
1.010000e+01	1.702201e-01
1.020000e+01	1.701734e-01
1.030000e+01	1.701041e-01
1.040000e+01	1.699905e-01
1.050000e+01	1.697804e-01
1.060000e+01	1.695382e-01
1.070000e+01	1.693982e-01
1.080000e+01	1.691656e-01
1.090000e+01	1.689681e-01
1.100000e+01	1.687187e-01
1.110000e+01	1.684819e-01
1.120000e+01	1.683469e-01
1.130000e+01	1.683277e-01
1.140000e+01	1.682735e-01
1.150000e+01	1.682681e-01
1.160000e+01	1.682513e-01
1.170000e+01	1.683083e-01
1.180000e+01	1.682234e-01
1.190000e+01	1.682402e-01
1.200000e+01	1.682604e-01
1.210000e+01	1.681022e-01
1.220000e+01	1.679976e-01
1.230000e+01	1.679181e-01
1.240000e+01	1.679534e-01
1.250000e+01	1.680677e-01
1.260000e+01	1.680728e-01
1.270000e+01	1.681521e-01
1.280000e+01	1.682382e-01
1.290000e+01	1.682856e-01
1.300000e+01	1.683482e-01
1.310000e+01	1.685108e-01
1.320000e+01	1.686273e-01
1.330000e+01	1.686424e-01
1.340000e+01	1.687823e-01
1.350000e+01	1.688285e-01
1.360000e+01	1.688160e-01
1.370000e+01	1.688452e-01
1.380000e+01	1.688844e-01
1.390000e+01	1.690045e-01
1.400000e+01	1.691092e-01
1.410000e+01	1.692802e-01
1.420000e+01	1.695738e-01
1.430000e+01	1.697701e-01
1.440000e+01	1.698459e-01
1.450000e+01	1.699364e-01
1.460000e+01	1.700407e-01
1.470000e+01	1.701108e-01
1.480000e+01	1.702325e-01
1.490000e+01	1.703926e-01
1.500000e+01	1.703707e-01
1.510000e+01	1.703664e-01
1.520000e+01	1.704524e-01
1.530000e+01	1.705638e-01
1.540000e+01	1.705639e-01
1.550000e+01	1.705705e-01
1.560000e+01	1.704754e-01
1.570000e+01	1.703803e-01
1.580000e+01	1.703539e-01
1.590000e+01	1.703439e-01
1.600000e+01	1.704111e-01
1.610000e+01	1.703988e-01
1.620000e+01	1.703061e-01
1.630000e+01	1.704092e-01
1.640000e+01	1.703858e-01
1.650000e+01	1.701750e-01
1.660000e+01	1.701384e-01
1.670000e+01	1.701085e-01
1.680000e+01	1.699911e-01
1.690000e+01	1.697807e-01
1.700000e+01	1.695969e-01
1.710000e+01	1.695031e-01
1.720000e+01	1.693553e-01
1.730000e+01	1.692750e-01
1.740000e+01	1.691354e-01
1.750000e+01	1.690271e-01
1.760000e+01	1.690638e-01
1.770000e+01	1.690498e-01
1.780000e+01	1.688579e-01
1.790000e+01	1.686792e-01
1.800000e+01	1.685556e-01
1.810000e+01	1.684959e-01
1.820000e+01	1.684345e-01
1.830000e+01	1.683729e-01
1.840000e+01	1.681197e-01
1.850000e+01	1.678072e-01
1.860000e+01	1.674441e-01
1.870000e+01	1.669903e-01
1.880000e+01	1.666096e-01
1.890000e+01	1.662133e-01
1.900000e+01	1.659550e-01
1.910000e+01	1.657956e-01
1.920000e+01	1.654542e-01
1.930000e+01	1.650347e-01
1.940000e+01	1.646151e-01
1.950000e+01	1.642362e-01
1.960000e+01	1.639267e-01
1.970000e+01	1.637602e-01
1.980000e+01	1.635359e-01
1.990000e+01	1.633031e-01
2.000000e+01	1.629774e-01
2.010000e+01	1.626407e-01
2.020000e+01	1.624224e-01
2.030000e+01	1.621643e-01
2.040000e+01	1.618852e-01
2.050000e+01	1.617645e-01
2.060000e+01	1.616679e-01
2.070000e+01	1.615389e-01
2.080000e+01	1.613935e-01
2.090000e+01	1.612313e-01
2.100000e+01	1.610881e-01
2.110000e+01	1.610957e-01
2.120000e+01	1.611384e-01
2.130000e+01	1.613765e-01
2.140000e+01	1.614535e-01
2.150000e+01	1.615928e-01
2.160000e+01	1.619459e-01
2.170000e+01	1.622824e-01
2.180000e+01	1.626638e-01
2.190000e+01	1.631193e-01
2.200000e+01	1.636160e-01
2.210000e+01	1.639546e-01
2.220000e+01	1.642144e-01
2.230000e+01	1.643949e-01
2.240000e+01	1.646109e-01
2.250000e+01	1.650721e-01
2.260000e+01	1.658034e-01
2.270000e+01	1.664808e-01
2.280000e+01	1.669864e-01
2.290000e+01	1.673131e-01
2.300000e+01	1.675240e-01
2.310000e+01	1.676095e-01
2.320000e+01	1.675839e-01
2.330000e+01	1.676190e-01
2.340000e+01	1.677900e-01
2.350000e+01	1.680538e-01
2.360000e+01	1.681167e-01
2.370000e+01	1.681301e-01
2.380000e+01	1.683206e-01
2.390000e+01	1.683961e-01
2.400000e+01	1.683187e-01
2.410000e+01	1.682630e-01
2.420000e+01	1.683600e-01
2.430000e+01	1.686725e-01
2.440000e+01	1.689222e-01
2.450000e+01	1.692739e-01
2.460000e+01	1.695332e-01
2.470000e+01	1.696034e-01
2.480000e+01	1.695296e-01
2.490000e+01	1.696515e-01
2.500000e+01	1.695278e-01
2.510000e+01	1.694805e-01
2.520000e+01	1.696798e-01
2.530000e+01	1.699030e-01
2.540000e+01	1.699026e-01
2.550000e+01	1.696296e-01
2.560000e+01	1.691718e-01
2.570000e+01	1.685107e-01
2.580000e+01	1.679507e-01
2.590000e+01	1.673425e-01
2.600000e+01	1.669092e-01
2.610000e+01	1.664778e-01
2.620000e+01	1.660695e-01
2.630000e+01	1.654133e-01
2.640000e+01	1.645384e-01
2.650000e+01	1.635290e-01
2.660000e+01	1.627775e-01
2.670000e+01	1.621329e-01
2.680000e+01	1.617527e-01
2.690000e+01	1.615365e-01
2.700000e+01	1.617461e-01
2.710000e+01	1.622547e-01
2.720000e+01	1.631425e-01
2.730000e+01	1.639962e-01
2.740000e+01	1.649202e-01
2.750000e+01	1.651743e-01
2.760000e+01	1.653052e-01
2.770000e+01	1.658702e-01
2.780000e+01	1.667458e-01
2.790000e+01	1.674989e-01
2.800000e+01	1.680293e-01
2.810000e+01	1.684338e-01
2.820000e+01	1.684526e-01
2.830000e+01	1.682943e-01
2.840000e+01	1.683440e-01
2.850000e+01	1.681676e-01
2.860000e+01	1.686395e-01
2.870000e+01	1.689317e-01
2.880000e+01	1.692963e-01
2.890000e+01	1.692031e-01
2.900000e+01	1.687089e-01
2.910000e+01	1.688084e-01
2.920000e+01	1.689854e-01
2.930000e+01	1.693327e-01
2.940000e+01	1.703690e-01
2.950000e+01	1.711335e-01
2.960000e+01	1.707566e-01
2.970000e+01	1.698078e-01
2.980000e+01	1.702401e-01
