#header: N=2	 eta=0.290000	TIME_MAX=30	TERM_TIME=20000	TEMP=0.656122
1.000000e-01	3.365312e-03
2.000000e-01	7.539204e-03
3.000000e-01	1.199631e-02
4.000000e-01	1.659269e-02
5.000000e-01	2.128896e-02
6.000000e-01	2.611324e-02
7.000000e-01	3.102186e-02
8.000000e-01	3.597057e-02
9.000000e-01	4.097323e-02
1.000000e+00	4.600789e-02
1.100000e+00	5.102242e-02
1.200000e+00	5.595952e-02
1.300000e+00	6.082472e-02
1.400000e+00	6.559651e-02
1.500000e+00	7.024931e-02
1.600000e+00	7.473407e-02
1.700000e+00	7.910142e-02
1.800000e+00	8.332647e-02
1.900000e+00	8.736073e-02
2.000000e+00	9.124784e-02
2.100000e+00	9.494154e-02
2.200000e+00	9.849391e-02
2.300000e+00	1.018613e-01
2.400000e+00	1.050945e-01
2.500000e+00	1.082020e-01
2.600000e+00	1.111651e-01
2.700000e+00	1.140422e-01
2.800000e+00	1.168123e-01
2.900000e+00	1.194536e-01
3.000000e+00	1.219707e-01
3.100000e+00	1.243420e-01
3.200000e+00	1.266852e-01
3.300000e+00	1.288666e-01
3.400000e+00	1.309359e-01
3.500000e+00	1.329590e-01
3.600000e+00	1.348993e-01
3.700000e+00	1.367428e-01
3.800000e+00	1.384438e-01
3.900000e+00	1.399942e-01
4.000000e+00	1.414241e-01
4.100000e+00	1.427681e-01
4.200000e+00	1.440092e-01
4.300000e+00	1.452697e-01
4.400000e+00	1.464394e-01
4.500000e+00	1.474783e-01
4.600000e+00	1.484166e-01
4.700000e+00	1.493474e-01
4.800000e+00	1.502127e-01
4.900000e+00	1.510638e-01
5.000000e+00	1.519155e-01
5.100000e+00	1.528145e-01
5.200000e+00	1.536245e-01
5.300000e+00	1.543930e-01
5.400000e+00	1.551250e-01
5.500000e+00	1.558344e-01
5.600000e+00	1.565587e-01
5.700000e+00	1.572692e-01
5.800000e+00	1.579024e-01
5.900000e+00	1.584356e-01
6.000000e+00	1.589977e-01
6.100000e+00	1.594482e-01
6.200000e+00	1.599380e-01
6.300000e+00	1.605240e-01
6.400000e+00	1.611277e-01
6.500000e+00	1.616991e-01
6.600000e+00	1.621609e-01
6.700000e+00	1.624575e-01
6.800000e+00	1.627425e-01
6.900000e+00	1.631151e-01
7.000000e+00	1.636170e-01
7.100000e+00	1.640746e-01
7.200000e+00	1.644548e-01
7.300000e+00	1.648522e-01
7.400000e+00	1.652525e-01
7.500000e+00	1.655988e-01
7.600000e+00	1.658249e-01
7.700000e+00	1.661158e-01
7.800000e+00	1.664561e-01
7.900000e+00	1.667238e-01
8.000000e+00	1.668752e-01
8.100000e+00	1.671869e-01
8.200000e+00	1.673920e-01
8.300000e+00	1.675914e-01
8.400000e+00	1.677713e-01
8.500000e+00	1.680510e-01
8.600000e+00	1.682722e-01
8.700000e+00	1.685581e-01
8.800000e+00	1.687291e-01
8.900000e+00	1.688673e-01
9.000000e+00	1.690182e-01
9.100000e+00	1.692816e-01
9.200000e+00	1.695640e-01
9.300000e+00	1.697237e-01
9.400000e+00	1.698801e-01
9.500000e+00	1.701172e-01
9.600000e+00	1.703086e-01
9.700000e+00	1.704013e-01
9.800000e+00	1.703923e-01
9.900000e+00	1.704886e-01
1.000000e+01	1.705192e-01
1.010000e+01	1.705812e-01
1.020000e+01	1.705394e-01
1.030000e+01	1.705364e-01
1.040000e+01	1.704581e-01
1.050000e+01	1.703627e-01
1.060000e+01	1.703991e-01
1.070000e+01	1.703642e-01
1.080000e+01	1.703192e-01
1.090000e+01	1.702833e-01
1.100000e+01	1.703136e-01
1.110000e+01	1.702971e-01
1.120000e+01	1.703141e-01
1.130000e+01	1.703676e-01
1.140000e+01	1.704324e-01
1.150000e+01	1.703675e-01
1.160000e+01	1.702463e-01
1.170000e+01	1.701602e-01
1.180000e+01	1.701007e-01
1.190000e+01	1.701347e-01
1.200000e+01	1.701860e-01
1.210000e+01	1.701269e-01
1.220000e+01	1.700939e-01
1.230000e+01	1.701304e-01
1.240000e+01	1.701249e-01
1.250000e+01	1.700542e-01
1.260000e+01	1.700193e-01
1.270000e+01	1.699168e-01
1.280000e+01	1.697854e-01
1.290000e+01	1.697102e-01
1.300000e+01	1.695461e-01
1.310000e+01	1.694401e-01
1.320000e+01	1.692989e-01
1.330000e+01	1.690668e-01
1.340000e+01	1.688271e-01
1.350000e+01	1.687318e-01
1.360000e+01	1.686567e-01
1.370000e+01	1.686292e-01
1.380000e+01	1.685466e-01
1.390000e+01	1.683874e-01
1.400000e+01	1.682496e-01
1.410000e+01	1.680667e-01
1.420000e+01	1.679244e-01
1.430000e+01	1.680000e-01
1.440000e+01	1.680195e-01
1.450000e+01	1.681421e-01
1.460000e+01	1.682301e-01
1.470000e+01	1.683664e-01
1.480000e+01	1.684455e-01
1.490000e+01	1.686312e-01
1.500000e+01	1.688154e-01
1.510000e+01	1.689193e-01
1.520000e+01	1.690343e-01
1.530000e+01	1.692701e-01
1.540000e+01	1.693962e-01
1.550000e+01	1.695539e-01
1.560000e+01	1.698213e-01
1.570000e+01	1.699506e-01
1.580000e+01	1.699669e-01
1.590000e+01	1.700051e-01
1.600000e+01	1.700226e-01
1.610000e+01	1.701171e-01
1.620000e+01	1.701896e-01
1.630000e+01	1.703817e-01
1.640000e+01	1.705218e-01
1.650000e+01	1.705619e-01
1.660000e+01	1.705482e-01
1.670000e+01	1.705510e-01
1.680000e+01	1.705237e-01
1.690000e+01	1.705072e-01
1.700000e+01	1.704146e-01
1.710000e+01	1.702061e-01
1.720000e+01	1.699866e-01
1.730000e+01	1.698197e-01
1.740000e+01	1.696351e-01
1.750000e+01	1.694650e-01
1.760000e+01	1.693465e-01
1.770000e+01	1.693070e-01
1.780000e+01	1.691931e-01
1.790000e+01	1.689874e-01
1.800000e+01	1.687640e-01
1.810000e+01	1.685656e-01
1.820000e+01	1.683960e-01
1.830000e+01	1.682660e-01
1.840000e+01	1.680583e-01
1.850000e+01	1.678212e-01
1.860000e+01	1.676690e-01
1.870000e+01	1.676537e-01
1.880000e+01	1.676405e-01
1.890000e+01	1.675477e-01
1.900000e+01	1.675637e-01
1.910000e+01	1.676206e-01
1.920000e+01	1.676927e-01
1.930000e+01	1.677300e-01
1.940000e+01	1.677015e-01
1.950000e+01	1.676071e-01
1.960000e+01	1.674850e-01
1.970000e+01	1.672990e-01
1.980000e+01	1.672131e-01
1.990000e+01	1.670704e-01
2.000000e+01	1.670585e-01
2.010000e+01	1.670234e-01
2.020000e+01	1.668541e-01
2.030000e+01	1.666123e-01
2.040000e+01	1.663173e-01
2.050000e+01	1.662156e-01
2.060000e+01	1.661848e-01
2.070000e+01	1.662451e-01
2.080000e+01	1.661947e-01
2.090000e+01	1.659970e-01
2.100000e+01	1.658088e-01
2.110000e+01	1.657672e-01
2.120000e+01	1.656863e-01
2.130000e+01	1.655565e-01
2.140000e+01	1.653400e-01
2.150000e+01	1.650417e-01
2.160000e+01	1.649469e-01
2.170000e+01	1.648587e-01
2.180000e+01	1.648237e-01
2.190000e+01	1.647222e-01
2.200000e+01	1.645982e-01
2.210000e+01	1.644332e-01
2.220000e+01	1.643309e-01
2.230000e+01	1.642127e-01
2.240000e+01	1.641705e-01
2.250000e+01	1.639938e-01
2.260000e+01	1.640000e-01
2.270000e+01	1.641168e-01
2.280000e+01	1.640023e-01
2.290000e+01	1.639904e-01
2.300000e+01	1.637626e-01
2.310000e+01	1.635106e-01
2.320000e+01	1.633480e-01
2.330000e+01	1.633432e-01
2.340000e+01	1.631480e-01
2.350000e+01	1.630079e-01
2.360000e+01	1.628266e-01
2.370000e+01	1.627903e-01
2.380000e+01	1.628413e-01
2.390000e+01	1.628506e-01
2.400000e+01	1.629030e-01
2.410000e+01	1.626371e-01
2.420000e+01	1.622751e-01
2.430000e+01	1.621554e-01
2.440000e+01	1.621697e-01
2.450000e+01	1.624220e-01
2.460000e+01	1.622584e-01
2.470000e+01	1.622098e-01
2.480000e+01	1.623580e-01
2.490000e+01	1.621817e-01
2.500000e+01	1.617001e-01
2.510000e+01	1.610701e-01
2.520000e+01	1.605533e-01
2.530000e+01	1.602752e-01
2.540000e+01	1.601278e-01
2.550000e+01	1.599851e-01
2.560000e+01	1.599602e-01
2.570000e+01	1.598898e-01
2.580000e+01	1.598711e-01
2.590000e+01	1.599485e-01
2.600000e+01	1.598511e-01
2.610000e+01	1.597456e-01
2.620000e+01	1.597513e-01
2.630000e+01	1.598074e-01
2.640000e+01	1.601514e-01
2.650000e+01	1.602935e-01
2.660000e+01	1.605817e-01
2.670000e+01	1.607759e-01
2.680000e+01	1.609498e-01
2.690000e+01	1.610454e-01
2.700000e+01	1.613571e-01
2.710000e+01	1.614609e-01
2.720000e+01	1.614031e-01
2.730000e+01	1.616247e-01
2.740000e+01	1.617948e-01
2.750000e+01	1.619546e-01
2.760000e+01	1.622027e-01
2.770000e+01	1.622500e-01
2.780000e+01	1.617941e-01
2.790000e+01	1.612312e-01
2.800000e+01	1.612134e-01
2.810000e+01	1.613154e-01
2.820000e+01	1.613974e-01
2.830000e+01	1.612314e-01
2.840000e+01	1.607407e-01
2.850000e+01	1.601233e-01
2.860000e+01	1.598683e-01
2.870000e+01	1.598313e-01
2.880000e+01	1.598305e-01
2.890000e+01	1.603762e-01
2.900000e+01	1.607675e-01
2.910000e+01	1.613400e-01
2.920000e+01	1.622929e-01
2.930000e+01	1.633933e-01
2.940000e+01	1.643650e-01
2.950000e+01	1.656450e-01
2.960000e+01	1.666194e-01
2.970000e+01	1.661814e-01
2.980000e+01	1.668182e-01
