#header: N=2	 eta=0.290000	TIME_MAX=30	TERM_TIME=20000	TEMP=0.702720
1.000000e-01	3.523994e-03
2.000000e-01	7.852289e-03
3.000000e-01	1.244969e-02
4.000000e-01	1.720542e-02
5.000000e-01	2.210851e-02
6.000000e-01	2.715825e-02
7.000000e-01	3.227846e-02
8.000000e-01	3.742658e-02
9.000000e-01	4.259011e-02
1.000000e+00	4.769799e-02
1.100000e+00	5.278139e-02
1.200000e+00	5.779772e-02
1.300000e+00	6.270781e-02
1.400000e+00	6.745597e-02
1.500000e+00	7.206326e-02
1.600000e+00	7.653786e-02
1.700000e+00	8.087762e-02
1.800000e+00	8.505943e-02
1.900000e+00	8.902300e-02
2.000000e+00	9.277958e-02
2.100000e+00	9.642174e-02
2.200000e+00	9.996743e-02
2.300000e+00	1.033304e-01
2.400000e+00	1.065274e-01
2.500000e+00	1.096134e-01
2.600000e+00	1.125725e-01
2.700000e+00	1.154213e-01
2.800000e+00	1.181618e-01
2.900000e+00	1.207439e-01
3.000000e+00	1.232709e-01
3.100000e+00	1.256278e-01
3.200000e+00	1.278637e-01
3.300000e+00	1.299711e-01
3.400000e+00	1.319911e-01
3.500000e+00	1.339499e-01
3.600000e+00	1.358366e-01
3.700000e+00	1.376358e-01
3.800000e+00	1.393637e-01
3.900000e+00	1.410295e-01
4.000000e+00	1.425486e-01
4.100000e+00	1.438587e-01
4.200000e+00	1.450348e-01
4.300000e+00	1.461841e-01
4.400000e+00	1.472605e-01
4.500000e+00	1.483544e-01
4.600000e+00	1.494332e-01
4.700000e+00	1.504306e-01
4.800000e+00	1.513362e-01
4.900000e+00	1.521446e-01
5.000000e+00	1.529253e-01
5.100000e+00	1.536593e-01
5.200000e+00	1.542902e-01
5.300000e+00	1.548339e-01
5.400000e+00	1.554424e-01
5.500000e+00	1.560410e-01
5.600000e+00	1.565522e-01
5.700000e+00	1.570105e-01
5.800000e+00	1.575512e-01
5.900000e+00	1.580239e-01
6.000000e+00	1.584814e-01
6.100000e+00	1.587390e-01
6.200000e+00	1.589094e-01
6.300000e+00	1.591824e-01
6.400000e+00	1.594952e-01
6.500000e+00	1.598328e-01
6.600000e+00	1.601031e-01
6.700000e+00	1.602927e-01
6.800000e+00	1.605014e-01
6.900000e+00	1.607208e-01
7.000000e+00	1.608198e-01
7.100000e+00	1.609783e-01
7.200000e+00	1.611443e-01
7.300000e+00	1.613776e-01
7.400000e+00	1.615359e-01
7.500000e+00	1.616941e-01
7.600000e+00	1.617715e-01
7.700000e+00	1.619450e-01
7.800000e+00	1.621605e-01
7.900000e+00	1.624032e-01
8.000000e+00	1.627398e-01
8.100000e+00	1.630224e-01
8.200000e+00	1.634078e-01
8.300000e+00	1.636914e-01
8.400000e+00	1.639902e-01
8.500000e+00	1.642931e-01
8.600000e+00	1.645102e-01
8.700000e+00	1.646146e-01
8.800000e+00	1.646061e-01
8.900000e+00	1.646946e-01
9.000000e+00	1.647163e-01
9.100000e+00	1.648214e-01
9.200000e+00	1.649141e-01
9.300000e+00	1.648816e-01
9.400000e+00	1.648831e-01
9.500000e+00	1.648400e-01
9.600000e+00	1.647060e-01
9.700000e+00	1.646193e-01
9.800000e+00	1.646156e-01
9.900000e+00	1.644742e-01
1.000000e+01	1.644295e-01
1.010000e+01	1.643257e-01
1.020000e+01	1.642311e-01
1.030000e+01	1.640615e-01
1.040000e+01	1.639226e-01
1.050000e+01	1.637795e-01
1.060000e+01	1.637226e-01
1.070000e+01	1.636653e-01
1.080000e+01	1.635734e-01
1.090000e+01	1.635269e-01
1.100000e+01	1.635463e-01
1.110000e+01	1.635383e-01
1.120000e+01	1.635605e-01
1.130000e+01	1.636464e-01
1.140000e+01	1.637457e-01
1.150000e+01	1.638452e-01
1.160000e+01	1.639558e-01
1.170000e+01	1.641307e-01
1.180000e+01	1.641911e-01
1.190000e+01	1.641720e-01
1.200000e+01	1.643287e-01
1.210000e+01	1.644624e-01
1.220000e+01	1.645347e-01
1.230000e+01	1.646228e-01
1.240000e+01	1.646341e-01
1.250000e+01	1.645326e-01
1.260000e+01	1.644440e-01
1.270000e+01	1.644653e-01
1.280000e+01	1.644738e-01
1.290000e+01	1.644565e-01
1.300000e+01	1.645326e-01
1.310000e+01	1.647566e-01
1.320000e+01	1.650097e-01
1.330000e+01	1.653587e-01
1.340000e+01	1.657394e-01
1.350000e+01	1.661845e-01
1.360000e+01	1.665490e-01
1.370000e+01	1.667755e-01
1.380000e+01	1.670566e-01
1.390000e+01	1.673115e-01
1.400000e+01	1.674362e-01
1.410000e+01	1.673849e-01
1.420000e+01	1.674193e-01
1.430000e+01	1.673600e-01
1.440000e+01	1.673361e-01
1.450000e+01	1.673372e-01
1.460000e+01	1.673187e-01
1.470000e+01	1.672428e-01
1.480000e+01	1.670661e-01
1.490000e+01	1.670160e-01
1.500000e+01	1.668524e-01
1.510000e+01	1.667000e-01
1.520000e+01	1.664716e-01
1.530000e+01	1.663223e-01
1.540000e+01	1.661765e-01
1.550000e+01	1.660967e-01
1.560000e+01	1.660410e-01
1.570000e+01	1.660707e-01
1.580000e+01	1.661516e-01
1.590000e+01	1.662302e-01
1.600000e+01	1.661813e-01
1.610000e+01	1.661251e-01
1.620000e+01	1.661001e-01
1.630000e+01	1.662447e-01
1.640000e+01	1.663738e-01
1.650000e+01	1.663163e-01
1.660000e+01	1.662454e-01
1.670000e+01	1.661719e-01
1.680000e+01	1.661145e-01
1.690000e+01	1.658938e-01
1.700000e+01	1.657591e-01
1.710000e+01	1.656112e-01
1.720000e+01	1.655271e-01
1.730000e+01	1.654627e-01
1.740000e+01	1.653978e-01
1.750000e+01	1.654189e-01
1.760000e+01	1.652674e-01
1.770000e+01	1.649245e-01
1.780000e+01	1.646872e-01
1.790000e+01	1.644953e-01
1.800000e+01	1.644013e-01
1.810000e+01	1.641012e-01
1.820000e+01	1.639743e-01
1.830000e+01	1.639077e-01
1.840000e+01	1.638675e-01
1.850000e+01	1.637581e-01
1.860000e+01	1.637067e-01
1.870000e+01	1.635876e-01
1.880000e+01	1.636044e-01
1.890000e+01	1.636593e-01
1.900000e+01	1.635725e-01
1.910000e+01	1.636128e-01
1.920000e+01	1.637088e-01
1.930000e+01	1.636707e-01
1.940000e+01	1.636019e-01
1.950000e+01	1.635865e-01
1.960000e+01	1.636386e-01
1.970000e+01	1.637845e-01
1.980000e+01	1.638967e-01
1.990000e+01	1.640763e-01
2.000000e+01	1.642511e-01
2.010000e+01	1.643358e-01
2.020000e+01	1.644106e-01
2.030000e+01	1.643987e-01
2.040000e+01	1.644011e-01
2.050000e+01	1.644123e-01
2.060000e+01	1.643731e-01
2.070000e+01	1.642214e-01
2.080000e+01	1.641244e-01
2.090000e+01	1.642104e-01
2.100000e+01	1.642180e-01
2.110000e+01	1.641540e-01
2.120000e+01	1.641905e-01
2.130000e+01	1.643470e-01
2.140000e+01	1.644494e-01
2.150000e+01	1.645431e-01
2.160000e+01	1.649060e-01
2.170000e+01	1.652093e-01
2.180000e+01	1.654684e-01
2.190000e+01	1.657257e-01
2.200000e+01	1.658910e-01
2.210000e+01	1.659332e-01
2.220000e+01	1.659765e-01
2.230000e+01	1.660096e-01
2.240000e+01	1.659923e-01
2.250000e+01	1.658841e-01
2.260000e+01	1.659112e-01
2.270000e+01	1.658253e-01
2.280000e+01	1.655255e-01
2.290000e+01	1.652131e-01
2.300000e+01	1.651707e-01
2.310000e+01	1.652307e-01
2.320000e+01	1.652615e-01
2.330000e+01	1.651903e-01
2.340000e+01	1.648933e-01
2.350000e+01	1.645747e-01
2.360000e+01	1.642164e-01
2.370000e+01	1.640033e-01
2.380000e+01	1.638659e-01
2.390000e+01	1.634936e-01
2.400000e+01	1.632591e-01
2.410000e+01	1.629106e-01
2.420000e+01	1.625754e-01
2.430000e+01	1.622944e-01
2.440000e+01	1.621215e-01
2.450000e+01	1.620752e-01
2.460000e+01	1.619473e-01
2.470000e+01	1.618501e-01
2.480000e+01	1.617221e-01
2.490000e+01	1.615172e-01
2.500000e+01	1.614481e-01
2.510000e+01	1.614257e-01
2.520000e+01	1.611955e-01
2.530000e+01	1.609241e-01
2.540000e+01	1.608444e-01
2.550000e+01	1.608634e-01
2.560000e+01	1.607149e-01
2.570000e+01	1.607217e-01
2.580000e+01	1.607100e-01
2.590000e+01	1.610261e-01
2.600000e+01	1.612416e-01
2.610000e+01	1.613680e-01
2.620000e+01	1.615058e-01
2.630000e+01	1.613423e-01
2.640000e+01	1.611256e-01
2.650000e+01	1.607325e-01
2.660000e+01	1.605970e-01
2.670000e+01	1.604489e-01
2.680000e+01	1.604439e-01
2.690000e+01	1.603555e-01
2.700000e+01	1.603932e-01
2.710000e+01	1.603793e-01
2.720000e+01	1.607826e-01
2.730000e+01	1.610188e-01
2.740000e+01	1.612213e-01
2.750000e+01	1.614803e-01
2.760000e+01	1.615804e-01
2.770000e+01	1.615319e-01
2.780000e+01	1.611785e-01
2.790000e+01	1.607202e-01
2.800000e+01	1.602518e-01
2.810000e+01	1.601791e-01
2.820000e+01	1.605907e-01
2.830000e+01	1.611802e-01
2.840000e+01	1.616428e-01
2.850000e+01	1.622334e-01
2.860000e+01	1.626787e-01
2.870000e+01	1.626407e-01
2.880000e+01	1.632158e-01
2.890000e+01	1.648107e-01
2.900000e+01	1.659265e-01
2.910000e+01	1.665237e-01
2.920000e+01	1.662254e-01
2.930000e+01	1.668551e-01
2.940000e+01	1.677190e-01
2.950000e+01	1.692448e-01
2.960000e+01	1.700363e-01
2.970000e+01	1.693537e-01
2.980000e+01	1.684376e-01
