#header: N=2	 eta=0.300000	TIME_MAX=30	TERM_TIME=20000	TEMP=0.077062
1.000000e-01	1.220535e-03
2.000000e-01	2.891636e-03
3.000000e-01	5.208489e-03
4.000000e-01	7.928127e-03
5.000000e-01	1.090454e-02
6.000000e-01	1.403776e-02
7.000000e-01	1.726752e-02
8.000000e-01	2.057311e-02
9.000000e-01	2.392412e-02
1.000000e+00	2.730635e-02
1.100000e+00	3.074510e-02
1.200000e+00	3.424627e-02
1.300000e+00	3.777229e-02
1.400000e+00	4.127895e-02
1.500000e+00	4.476660e-02
1.600000e+00	4.826501e-02
1.700000e+00	5.174648e-02
1.800000e+00	5.516540e-02
1.900000e+00	5.848757e-02
2.000000e+00	6.172955e-02
2.100000e+00	6.494014e-02
2.200000e+00	6.809339e-02
2.300000e+00	7.122429e-02
2.400000e+00	7.432223e-02
2.500000e+00	7.734901e-02
2.600000e+00	8.027962e-02
2.700000e+00	8.309696e-02
2.800000e+00	8.580735e-02
2.900000e+00	8.839840e-02
3.000000e+00	9.085033e-02
3.100000e+00	9.316448e-02
3.200000e+00	9.543636e-02
3.300000e+00	9.762616e-02
3.400000e+00	9.981284e-02
3.500000e+00	1.019340e-01
3.600000e+00	1.039572e-01
3.700000e+00	1.059449e-01
3.800000e+00	1.078931e-01
3.900000e+00	1.098147e-01
4.000000e+00	1.117577e-01
4.100000e+00	1.136631e-01
4.200000e+00	1.155479e-01
4.300000e+00	1.174161e-01
4.400000e+00	1.192706e-01
4.500000e+00	1.210157e-01
4.600000e+00	1.226882e-01
4.700000e+00	1.243426e-01
4.800000e+00	1.259754e-01
4.900000e+00	1.275336e-01
5.000000e+00	1.290571e-01
5.100000e+00	1.305414e-01
5.200000e+00	1.319493e-01
5.300000e+00	1.333088e-01
5.400000e+00	1.346361e-01
5.500000e+00	1.359502e-01
5.600000e+00	1.370926e-01
5.700000e+00	1.380574e-01
5.800000e+00	1.389484e-01
5.900000e+00	1.398823e-01
6.000000e+00	1.407303e-01
6.100000e+00	1.416373e-01
6.200000e+00	1.425121e-01
6.300000e+00	1.433405e-01
6.400000e+00	1.441025e-01
6.500000e+00	1.447535e-01
6.600000e+00	1.453626e-01
6.700000e+00	1.460594e-01
6.800000e+00	1.466878e-01
6.900000e+00	1.472219e-01
7.000000e+00	1.478058e-01
7.100000e+00	1.483663e-01
7.200000e+00	1.489387e-01
7.300000e+00	1.494351e-01
7.400000e+00	1.498540e-01
7.500000e+00	1.502726e-01
7.600000e+00	1.505803e-01
7.700000e+00	1.508268e-01
7.800000e+00	1.510265e-01
7.900000e+00	1.511588e-01
8.000000e+00	1.512617e-01
8.100000e+00	1.513845e-01
8.200000e+00	1.515633e-01
8.300000e+00	1.517967e-01
8.400000e+00	1.520688e-01
8.500000e+00	1.522063e-01
8.600000e+00	1.521867e-01
8.700000e+00	1.520284e-01
8.800000e+00	1.518213e-01
8.900000e+00	1.516157e-01
9.000000e+00	1.513770e-01
9.100000e+00	1.511207e-01
9.200000e+00	1.508246e-01
9.300000e+00	1.504777e-01
9.400000e+00	1.501157e-01
9.500000e+00	1.497487e-01
9.600000e+00	1.495405e-01
9.700000e+00	1.494354e-01
9.800000e+00	1.493959e-01
9.900000e+00	1.494302e-01
1.000000e+01	1.494266e-01
1.010000e+01	1.494699e-01
1.020000e+01	1.496049e-01
1.030000e+01	1.497592e-01
1.040000e+01	1.499258e-01
1.050000e+01	1.501258e-01
1.060000e+01	1.502734e-01
1.070000e+01	1.502473e-01
1.080000e+01	1.500590e-01
1.090000e+01	1.498973e-01
1.100000e+01	1.497309e-01
1.110000e+01	1.495430e-01
1.120000e+01	1.491660e-01
1.130000e+01	1.487092e-01
1.140000e+01	1.483053e-01
1.150000e+01	1.479678e-01
1.160000e+01	1.476964e-01
1.170000e+01	1.474771e-01
1.180000e+01	1.473951e-01
1.190000e+01	1.473287e-01
1.200000e+01	1.473159e-01
1.210000e+01	1.471560e-01
1.220000e+01	1.469627e-01
1.230000e+01	1.467752e-01
1.240000e+01	1.466715e-01
1.250000e+01	1.467030e-01
1.260000e+01	1.468952e-01
1.270000e+01	1.471356e-01
1.280000e+01	1.473483e-01
1.290000e+01	1.476096e-01
1.300000e+01	1.478831e-01
1.310000e+01	1.480665e-01
1.320000e+01	1.483391e-01
1.330000e+01	1.487027e-01
1.340000e+01	1.492500e-01
1.350000e+01	1.499028e-01
1.360000e+01	1.505962e-01
1.370000e+01	1.512806e-01
1.380000e+01	1.519456e-01
1.390000e+01	1.525513e-01
1.400000e+01	1.530975e-01
1.410000e+01	1.537424e-01
1.420000e+01	1.544354e-01
1.430000e+01	1.550830e-01
1.440000e+01	1.557430e-01
1.450000e+01	1.563840e-01
1.460000e+01	1.571528e-01
1.470000e+01	1.581413e-01
1.480000e+01	1.592398e-01
1.490000e+01	1.601999e-01
1.500000e+01	1.610988e-01
1.510000e+01	1.619549e-01
1.520000e+01	1.627187e-01
1.530000e+01	1.634391e-01
1.540000e+01	1.640856e-01
1.550000e+01	1.647232e-01
1.560000e+01	1.653508e-01
1.570000e+01	1.658856e-01
1.580000e+01	1.664781e-01
1.590000e+01	1.670788e-01
1.600000e+01	1.676333e-01
1.610000e+01	1.681883e-01
1.620000e+01	1.685635e-01
1.630000e+01	1.687309e-01
1.640000e+01	1.686440e-01
1.650000e+01	1.685235e-01
1.660000e+01	1.683799e-01
1.670000e+01	1.683141e-01
1.680000e+01	1.683655e-01
1.690000e+01	1.684231e-01
1.700000e+01	1.685655e-01
1.710000e+01	1.685689e-01
1.720000e+01	1.684193e-01
1.730000e+01	1.683225e-01
1.740000e+01	1.680941e-01
1.750000e+01	1.677931e-01
1.760000e+01	1.676316e-01
1.770000e+01	1.675385e-01
1.780000e+01	1.674569e-01
1.790000e+01	1.671483e-01
1.800000e+01	1.669214e-01
1.810000e+01	1.666923e-01
1.820000e+01	1.663298e-01
1.830000e+01	1.659706e-01
1.840000e+01	1.656702e-01
1.850000e+01	1.653872e-01
1.860000e+01	1.652221e-01
1.870000e+01	1.651257e-01
1.880000e+01	1.649353e-01
1.890000e+01	1.648084e-01
1.900000e+01	1.647151e-01
1.910000e+01	1.646527e-01
1.920000e+01	1.645305e-01
1.930000e+01	1.644407e-01
1.940000e+01	1.642538e-01
1.950000e+01	1.640483e-01
1.960000e+01	1.639355e-01
1.970000e+01	1.639462e-01
1.980000e+01	1.640813e-01
1.990000e+01	1.642948e-01
2.000000e+01	1.645638e-01
2.010000e+01	1.649187e-01
2.020000e+01	1.652700e-01
2.030000e+01	1.655978e-01
2.040000e+01	1.658867e-01
2.050000e+01	1.661361e-01
2.060000e+01	1.664179e-01
2.070000e+01	1.667489e-01
2.080000e+01	1.671095e-01
2.090000e+01	1.676150e-01
2.100000e+01	1.681669e-01
2.110000e+01	1.686107e-01
2.120000e+01	1.688233e-01
2.130000e+01	1.689187e-01
2.140000e+01	1.690139e-01
2.150000e+01	1.691057e-01
2.160000e+01	1.692732e-01
2.170000e+01	1.694135e-01
2.180000e+01	1.696051e-01
2.190000e+01	1.696288e-01
2.200000e+01	1.695109e-01
2.210000e+01	1.695887e-01
2.220000e+01	1.697348e-01
2.230000e+01	1.698728e-01
2.240000e+01	1.701165e-01
2.250000e+01	1.703341e-01
2.260000e+01	1.704252e-01
2.270000e+01	1.704570e-01
2.280000e+01	1.704944e-01
2.290000e+01	1.706067e-01
2.300000e+01	1.706983e-01
2.310000e+01	1.708279e-01
2.320000e+01	1.708745e-01
2.330000e+01	1.707786e-01
2.340000e+01	1.705432e-01
2.350000e+01	1.703213e-01
2.360000e+01	1.701093e-01
2.370000e+01	1.698604e-01
2.380000e+01	1.699323e-01
2.390000e+01	1.700810e-01
2.400000e+01	1.700863e-01
2.410000e+01	1.699017e-01
2.420000e+01	1.696076e-01
2.430000e+01	1.692372e-01
2.440000e+01	1.689312e-01
2.450000e+01	1.686980e-01
2.460000e+01	1.684256e-01
2.470000e+01	1.683638e-01
2.480000e+01	1.683983e-01
2.490000e+01	1.684398e-01
2.500000e+01	1.683662e-01
2.510000e+01	1.681084e-01
2.520000e+01	1.678228e-01
2.530000e+01	1.675547e-01
2.540000e+01	1.671860e-01
2.550000e+01	1.666103e-01
2.560000e+01	1.658276e-01
2.570000e+01	1.649513e-01
2.580000e+01	1.641107e-01
2.590000e+01	1.632704e-01
2.600000e+01	1.624009e-01
2.610000e+01	1.618023e-01
2.620000e+01	1.616486e-01
2.630000e+01	1.620370e-01
2.640000e+01	1.628316e-01
2.650000e+01	1.634322e-01
2.660000e+01	1.640075e-01
2.670000e+01	1.644593e-01
2.680000e+01	1.645311e-01
2.690000e+01	1.645146e-01
2.700000e+01	1.644694e-01
2.710000e+01	1.643490e-01
2.720000e+01	1.645193e-01
2.730000e+01	1.646565e-01
2.740000e+01	1.647257e-01
2.750000e+01	1.650016e-01
2.760000e+01	1.656421e-01
2.770000e+01	1.664349e-01
2.780000e+01	1.673010e-01
2.790000e+01	1.682198e-01
2.800000e+01	1.692809e-01
2.810000e+01	1.699430e-01
2.820000e+01	1.704703e-01
2.830000e+01	1.709223e-01
2.840000e+01	1.710582e-01
2.850000e+01	1.715203e-01
2.860000e+01	1.728313e-01
2.870000e+01	1.744979e-01
2.880000e+01	1.761535e-01
2.890000e+01	1.777054e-01
2.900000e+01	1.789310e-01
2.910000e+01	1.800662e-01
2.920000e+01	1.808713e-01
2.930000e+01	1.814973e-01
2.940000e+01	1.829703e-01
2.950000e+01	1.844380e-01
2.960000e+01	1.854573e-01
2.970000e+01	1.851289e-01
2.980000e+01	1.841410e-01
