#header: N=2	 eta=0.310000	TIME_MAX=30	TERM_TIME=20000	TEMP=0.657273
1.000000e-01	3.226546e-03
2.000000e-01	7.109861e-03
3.000000e-01	1.127277e-02
4.000000e-01	1.560197e-02
5.000000e-01	2.002535e-02
6.000000e-01	2.454174e-02
7.000000e-01	2.912526e-02
8.000000e-01	3.380067e-02
9.000000e-01	3.851633e-02
1.000000e+00	4.321262e-02
1.100000e+00	4.788400e-02
1.200000e+00	5.248076e-02
1.300000e+00	5.702651e-02
1.400000e+00	6.148681e-02
1.500000e+00	6.582111e-02
1.600000e+00	6.999233e-02
1.700000e+00	7.411444e-02
1.800000e+00	7.807309e-02
1.900000e+00	8.189692e-02
2.000000e+00	8.559599e-02
2.100000e+00	8.916953e-02
2.200000e+00	9.262383e-02
2.300000e+00	9.590956e-02
2.400000e+00	9.903842e-02
2.500000e+00	1.020275e-01
2.600000e+00	1.048407e-01
2.700000e+00	1.075758e-01
2.800000e+00	1.102338e-01
2.900000e+00	1.128098e-01
3.000000e+00	1.152818e-01
3.100000e+00	1.176520e-01
3.200000e+00	1.199275e-01
3.300000e+00	1.220885e-01
3.400000e+00	1.241268e-01
3.500000e+00	1.260285e-01
3.600000e+00	1.278724e-01
3.700000e+00	1.296332e-01
3.800000e+00	1.313301e-01
3.900000e+00	1.329904e-01
4.000000e+00	1.345001e-01
4.100000e+00	1.359621e-01
4.200000e+00	1.373912e-01
4.300000e+00	1.387621e-01
4.400000e+00	1.400579e-01
4.500000e+00	1.412698e-01
4.600000e+00	1.423846e-01
4.700000e+00	1.434757e-01
4.800000e+00	1.446038e-01
4.900000e+00	1.456045e-01
5.000000e+00	1.465708e-01
5.100000e+00	1.475394e-01
5.200000e+00	1.485192e-01
5.300000e+00	1.494617e-01
5.400000e+00	1.503490e-01
5.500000e+00	1.512864e-01
5.600000e+00	1.521959e-01
5.700000e+00	1.531277e-01
5.800000e+00	1.540625e-01
5.900000e+00	1.549814e-01
6.000000e+00	1.558005e-01
6.100000e+00	1.564883e-01
6.200000e+00	1.571307e-01
6.300000e+00	1.577737e-01
6.400000e+00	1.584042e-01
6.500000e+00	1.589398e-01
6.600000e+00	1.595751e-01
6.700000e+00	1.601781e-01
6.800000e+00	1.607210e-01
6.900000e+00	1.611670e-01
7.000000e+00	1.615759e-01
7.100000e+00	1.619804e-01
7.200000e+00	1.623339e-01
7.300000e+00	1.625967e-01
7.400000e+00	1.627703e-01
7.500000e+00	1.628985e-01
7.600000e+00	1.630512e-01
7.700000e+00	1.631533e-01
7.800000e+00	1.632116e-01
7.900000e+00	1.631641e-01
8.000000e+00	1.631087e-01
8.100000e+00	1.630673e-01
8.200000e+00	1.630028e-01
8.300000e+00	1.628966e-01
8.400000e+00	1.628379e-01
8.500000e+00	1.628238e-01
8.600000e+00	1.627190e-01
8.700000e+00	1.626760e-01
8.800000e+00	1.626391e-01
8.900000e+00	1.626321e-01
9.000000e+00	1.626601e-01
9.100000e+00	1.627075e-01
9.200000e+00	1.627098e-01
9.300000e+00	1.627571e-01
9.400000e+00	1.628428e-01
9.500000e+00	1.629564e-01
9.600000e+00	1.630342e-01
9.700000e+00	1.631506e-01
9.800000e+00	1.632186e-01
9.900000e+00	1.632819e-01
1.000000e+01	1.633037e-01
1.010000e+01	1.632808e-01
1.020000e+01	1.633179e-01
1.030000e+01	1.633818e-01
1.040000e+01	1.634302e-01
1.050000e+01	1.635198e-01
1.060000e+01	1.637227e-01
1.070000e+01	1.638869e-01
1.080000e+01	1.640223e-01
1.090000e+01	1.640938e-01
1.100000e+01	1.641306e-01
1.110000e+01	1.641938e-01
1.120000e+01	1.642099e-01
1.130000e+01	1.643096e-01
1.140000e+01	1.642898e-01
1.150000e+01	1.641761e-01
1.160000e+01	1.640661e-01
1.170000e+01	1.640045e-01
1.180000e+01	1.638492e-01
1.190000e+01	1.637401e-01
1.200000e+01	1.636713e-01
1.210000e+01	1.635892e-01
1.220000e+01	1.634890e-01
1.230000e+01	1.634489e-01
1.240000e+01	1.633857e-01
1.250000e+01	1.632107e-01
1.260000e+01	1.630581e-01
1.270000e+01	1.629891e-01
1.280000e+01	1.628884e-01
1.290000e+01	1.627513e-01
1.300000e+01	1.626732e-01
1.310000e+01	1.626614e-01
1.320000e+01	1.627329e-01
1.330000e+01	1.628403e-01
1.340000e+01	1.630359e-01
1.350000e+01	1.632488e-01
1.360000e+01	1.634270e-01
1.370000e+01	1.636675e-01
1.380000e+01	1.638404e-01
1.390000e+01	1.638372e-01
1.400000e+01	1.637256e-01
1.410000e+01	1.635681e-01
1.420000e+01	1.634887e-01
1.430000e+01	1.634893e-01
1.440000e+01	1.634982e-01
1.450000e+01	1.635825e-01
1.460000e+01	1.636320e-01
1.470000e+01	1.637840e-01
1.480000e+01	1.639031e-01
1.490000e+01	1.639443e-01
1.500000e+01	1.639693e-01
1.510000e+01	1.640104e-01
1.520000e+01	1.640896e-01
1.530000e+01	1.640400e-01
1.540000e+01	1.641246e-01
1.550000e+01	1.642135e-01
1.560000e+01	1.642782e-01
1.570000e+01	1.643047e-01
1.580000e+01	1.644006e-01
1.590000e+01	1.644754e-01
1.600000e+01	1.644160e-01
1.610000e+01	1.644295e-01
1.620000e+01	1.643667e-01
1.630000e+01	1.643160e-01
1.640000e+01	1.642989e-01
1.650000e+01	1.642046e-01
1.660000e+01	1.639926e-01
1.670000e+01	1.637751e-01
1.680000e+01	1.635207e-01
1.690000e+01	1.634131e-01
1.700000e+01	1.634016e-01
1.710000e+01	1.633592e-01
1.720000e+01	1.633062e-01
1.730000e+01	1.632748e-01
1.740000e+01	1.632202e-01
1.750000e+01	1.632462e-01
1.760000e+01	1.634261e-01
1.770000e+01	1.636278e-01
1.780000e+01	1.639263e-01
1.790000e+01	1.642411e-01
1.800000e+01	1.644545e-01
1.810000e+01	1.645944e-01
1.820000e+01	1.646486e-01
1.830000e+01	1.645538e-01
1.840000e+01	1.644315e-01
1.850000e+01	1.643357e-01
1.860000e+01	1.642552e-01
1.870000e+01	1.640686e-01
1.880000e+01	1.639497e-01
1.890000e+01	1.639579e-01
1.900000e+01	1.640291e-01
1.910000e+01	1.639372e-01
1.920000e+01	1.638812e-01
1.930000e+01	1.637864e-01
1.940000e+01	1.637534e-01
1.950000e+01	1.638375e-01
1.960000e+01	1.639055e-01
1.970000e+01	1.639273e-01
1.980000e+01	1.639001e-01
1.990000e+01	1.638760e-01
2.000000e+01	1.638611e-01
2.010000e+01	1.638980e-01
2.020000e+01	1.640159e-01
2.030000e+01	1.641955e-01
2.040000e+01	1.643790e-01
2.050000e+01	1.645117e-01
2.060000e+01	1.645508e-01
2.070000e+01	1.645393e-01
2.080000e+01	1.644581e-01
2.090000e+01	1.643606e-01
2.100000e+01	1.642279e-01
2.110000e+01	1.641062e-01
2.120000e+01	1.639740e-01
2.130000e+01	1.637228e-01
2.140000e+01	1.635029e-01
2.150000e+01	1.632448e-01
2.160000e+01	1.630928e-01
2.170000e+01	1.629648e-01
2.180000e+01	1.628342e-01
2.190000e+01	1.626513e-01
2.200000e+01	1.624974e-01
2.210000e+01	1.623493e-01
2.220000e+01	1.622337e-01
2.230000e+01	1.621840e-01
2.240000e+01	1.619283e-01
2.250000e+01	1.616783e-01
2.260000e+01	1.614357e-01
2.270000e+01	1.612766e-01
2.280000e+01	1.613539e-01
2.290000e+01	1.613220e-01
2.300000e+01	1.613450e-01
2.310000e+01	1.613749e-01
2.320000e+01	1.616170e-01
2.330000e+01	1.617650e-01
2.340000e+01	1.620155e-01
2.350000e+01	1.620726e-01
2.360000e+01	1.620941e-01
2.370000e+01	1.621998e-01
2.380000e+01	1.624311e-01
2.390000e+01	1.624654e-01
2.400000e+01	1.624084e-01
2.410000e+01	1.623811e-01
2.420000e+01	1.623813e-01
2.430000e+01	1.624067e-01
2.440000e+01	1.623558e-01
2.450000e+01	1.621270e-01
2.460000e+01	1.620992e-01
2.470000e+01	1.621567e-01
2.480000e+01	1.621059e-01
2.490000e+01	1.620619e-01
2.500000e+01	1.620008e-01
2.510000e+01	1.618795e-01
2.520000e+01	1.617297e-01
2.530000e+01	1.617349e-01
2.540000e+01	1.618949e-01
2.550000e+01	1.621003e-01
2.560000e+01	1.622285e-01
2.570000e+01	1.624475e-01
2.580000e+01	1.625312e-01
2.590000e+01	1.625771e-01
2.600000e+01	1.624831e-01
2.610000e+01	1.624356e-01
2.620000e+01	1.623333e-01
2.630000e+01	1.621945e-01
2.640000e+01	1.622479e-01
2.650000e+01	1.623814e-01
2.660000e+01	1.625551e-01
2.670000e+01	1.627329e-01
2.680000e+01	1.627987e-01
2.690000e+01	1.629684e-01
2.700000e+01	1.630178e-01
2.710000e+01	1.635045e-01
2.720000e+01	1.637585e-01
2.730000e+01	1.639517e-01
2.740000e+01	1.639626e-01
2.750000e+01	1.641483e-01
2.760000e+01	1.637652e-01
2.770000e+01	1.639152e-01
2.780000e+01	1.642553e-01
2.790000e+01	1.645278e-01
2.800000e+01	1.647101e-01
2.810000e+01	1.650144e-01
2.820000e+01	1.657900e-01
2.830000e+01	1.667326e-01
2.840000e+01	1.673475e-01
2.850000e+01	1.679689e-01
2.860000e+01	1.685624e-01
2.870000e+01	1.690679e-01
2.880000e+01	1.695539e-01
2.890000e+01	1.698052e-01
2.900000e+01	1.698508e-01
2.910000e+01	1.696358e-01
2.920000e+01	1.695070e-01
2.930000e+01	1.697443e-01
2.940000e+01	1.707822e-01
2.950000e+01	1.711762e-01
2.960000e+01	1.711946e-01
2.970000e+01	1.728287e-01
2.980000e+01	1.719006e-01
