#header: N=2	 eta=0.310000	TIME_MAX=30	TERM_TIME=20000	TEMP=0.685362
1.000000e-01	3.281452e-03
2.000000e-01	7.203153e-03
3.000000e-01	1.137548e-02
4.000000e-01	1.571850e-02
5.000000e-01	2.017613e-02
6.000000e-01	2.476072e-02
7.000000e-01	2.944131e-02
8.000000e-01	3.417816e-02
9.000000e-01	3.892458e-02
1.000000e+00	4.366741e-02
1.100000e+00	4.838149e-02
1.200000e+00	5.303886e-02
1.300000e+00	5.764771e-02
1.400000e+00	6.224409e-02
1.500000e+00	6.671366e-02
1.600000e+00	7.111579e-02
1.700000e+00	7.542654e-02
1.800000e+00	7.959101e-02
1.900000e+00	8.359082e-02
2.000000e+00	8.746019e-02
2.100000e+00	9.118125e-02
2.200000e+00	9.478763e-02
2.300000e+00	9.825096e-02
2.400000e+00	1.014800e-01
2.500000e+00	1.045448e-01
2.600000e+00	1.075072e-01
2.700000e+00	1.103667e-01
2.800000e+00	1.131816e-01
2.900000e+00	1.158701e-01
3.000000e+00	1.184707e-01
3.100000e+00	1.209448e-01
3.200000e+00	1.233381e-01
3.300000e+00	1.256155e-01
3.400000e+00	1.277268e-01
3.500000e+00	1.297006e-01
3.600000e+00	1.315763e-01
3.700000e+00	1.333583e-01
3.800000e+00	1.350647e-01
3.900000e+00	1.366907e-01
4.000000e+00	1.382136e-01
4.100000e+00	1.396303e-01
4.200000e+00	1.409843e-01
4.300000e+00	1.423027e-01
4.400000e+00	1.434702e-01
4.500000e+00	1.445466e-01
4.600000e+00	1.455589e-01
4.700000e+00	1.465051e-01
4.800000e+00	1.474236e-01
4.900000e+00	1.482386e-01
5.000000e+00	1.490498e-01
5.100000e+00	1.498887e-01
5.200000e+00	1.507169e-01
5.300000e+00	1.514230e-01
5.400000e+00	1.520999e-01
5.500000e+00	1.527729e-01
5.600000e+00	1.534894e-01
5.700000e+00	1.541575e-01
5.800000e+00	1.547809e-01
5.900000e+00	1.554472e-01
6.000000e+00	1.561996e-01
6.100000e+00	1.569371e-01
6.200000e+00	1.576794e-01
6.300000e+00	1.583256e-01
6.400000e+00	1.588864e-01
6.500000e+00	1.593937e-01
6.600000e+00	1.599135e-01
6.700000e+00	1.604655e-01
6.800000e+00	1.609415e-01
6.900000e+00	1.614595e-01
7.000000e+00	1.619739e-01
7.100000e+00	1.624477e-01
7.200000e+00	1.628546e-01
7.300000e+00	1.632971e-01
7.400000e+00	1.636769e-01
7.500000e+00	1.640201e-01
7.600000e+00	1.643948e-01
7.700000e+00	1.647374e-01
7.800000e+00	1.650648e-01
7.900000e+00	1.653949e-01
8.000000e+00	1.656987e-01
8.100000e+00	1.659227e-01
8.200000e+00	1.660827e-01
8.300000e+00	1.663321e-01
8.400000e+00	1.666321e-01
8.500000e+00	1.668183e-01
8.600000e+00	1.669303e-01
8.700000e+00	1.670174e-01
8.800000e+00	1.669816e-01
8.900000e+00	1.670239e-01
9.000000e+00	1.669877e-01
9.100000e+00	1.670669e-01
9.200000e+00	1.671703e-01
9.300000e+00	1.672687e-01
9.400000e+00	1.673653e-01
9.500000e+00	1.674810e-01
9.600000e+00	1.675360e-01
9.700000e+00	1.674580e-01
9.800000e+00	1.673714e-01
9.900000e+00	1.672305e-01
1.000000e+01	1.671220e-01
1.010000e+01	1.670074e-01
1.020000e+01	1.669617e-01
1.030000e+01	1.668477e-01
1.040000e+01	1.666882e-01
1.050000e+01	1.665408e-01
1.060000e+01	1.663729e-01
1.070000e+01	1.661655e-01
1.080000e+01	1.659896e-01
1.090000e+01	1.658172e-01
1.100000e+01	1.656694e-01
1.110000e+01	1.655851e-01
1.120000e+01	1.654796e-01
1.130000e+01	1.653117e-01
1.140000e+01	1.650684e-01
1.150000e+01	1.648215e-01
1.160000e+01	1.647125e-01
1.170000e+01	1.644869e-01
1.180000e+01	1.642394e-01
1.190000e+01	1.641243e-01
1.200000e+01	1.640555e-01
1.210000e+01	1.640092e-01
1.220000e+01	1.639145e-01
1.230000e+01	1.638387e-01
1.240000e+01	1.638291e-01
1.250000e+01	1.639585e-01
1.260000e+01	1.640388e-01
1.270000e+01	1.641794e-01
1.280000e+01	1.643052e-01
1.290000e+01	1.645489e-01
1.300000e+01	1.647528e-01
1.310000e+01	1.649138e-01
1.320000e+01	1.650394e-01
1.330000e+01	1.651899e-01
1.340000e+01	1.652647e-01
1.350000e+01	1.653275e-01
1.360000e+01	1.654286e-01
1.370000e+01	1.654319e-01
1.380000e+01	1.654739e-01
1.390000e+01	1.655696e-01
1.400000e+01	1.656741e-01
1.410000e+01	1.656738e-01
1.420000e+01	1.656637e-01
1.430000e+01	1.656559e-01
1.440000e+01	1.658040e-01
1.450000e+01	1.658987e-01
1.460000e+01	1.659232e-01
1.470000e+01	1.659010e-01
1.480000e+01	1.659110e-01
1.490000e+01	1.659956e-01
1.500000e+01	1.660993e-01
1.510000e+01	1.660911e-01
1.520000e+01	1.660662e-01
1.530000e+01	1.661146e-01
1.540000e+01	1.661069e-01
1.550000e+01	1.661947e-01
1.560000e+01	1.661737e-01
1.570000e+01	1.661334e-01
1.580000e+01	1.661194e-01
1.590000e+01	1.659905e-01
1.600000e+01	1.658118e-01
1.610000e+01	1.656905e-01
1.620000e+01	1.655590e-01
1.630000e+01	1.655393e-01
1.640000e+01	1.654144e-01
1.650000e+01	1.654073e-01
1.660000e+01	1.653065e-01
1.670000e+01	1.651908e-01
1.680000e+01	1.651162e-01
1.690000e+01	1.650886e-01
1.700000e+01	1.650351e-01
1.710000e+01	1.649899e-01
1.720000e+01	1.650105e-01
1.730000e+01	1.649950e-01
1.740000e+01	1.650010e-01
1.750000e+01	1.650688e-01
1.760000e+01	1.651150e-01
1.770000e+01	1.651575e-01
1.780000e+01	1.652233e-01
1.790000e+01	1.651951e-01
1.800000e+01	1.650652e-01
1.810000e+01	1.648197e-01
1.820000e+01	1.645065e-01
1.830000e+01	1.644105e-01
1.840000e+01	1.642994e-01
1.850000e+01	1.642994e-01
1.860000e+01	1.642185e-01
1.870000e+01	1.643366e-01
1.880000e+01	1.644668e-01
1.890000e+01	1.645104e-01
1.900000e+01	1.645498e-01
1.910000e+01	1.646336e-01
1.920000e+01	1.647845e-01
1.930000e+01	1.648836e-01
1.940000e+01	1.649591e-01
1.950000e+01	1.649689e-01
1.960000e+01	1.648241e-01
1.970000e+01	1.648362e-01
1.980000e+01	1.647272e-01
1.990000e+01	1.647613e-01
2.000000e+01	1.648916e-01
2.010000e+01	1.649357e-01
2.020000e+01	1.649137e-01
2.030000e+01	1.649705e-01
2.040000e+01	1.650981e-01
2.050000e+01	1.651752e-01
2.060000e+01	1.653065e-01
2.070000e+01	1.654219e-01
2.080000e+01	1.653812e-01
2.090000e+01	1.653441e-01
2.100000e+01	1.652809e-01
2.110000e+01	1.654578e-01
2.120000e+01	1.656689e-01
2.130000e+01	1.657479e-01
2.140000e+01	1.659379e-01
2.150000e+01	1.662300e-01
2.160000e+01	1.663383e-01
2.170000e+01	1.665020e-01
2.180000e+01	1.668020e-01
2.190000e+01	1.671243e-01
2.200000e+01	1.675021e-01
2.210000e+01	1.677590e-01
2.220000e+01	1.680905e-01
2.230000e+01	1.684388e-01
2.240000e+01	1.688851e-01
2.250000e+01	1.690380e-01
2.260000e+01	1.692805e-01
2.270000e+01	1.694560e-01
2.280000e+01	1.695671e-01
2.290000e+01	1.695365e-01
2.300000e+01	1.694841e-01
2.310000e+01	1.693602e-01
2.320000e+01	1.692710e-01
2.330000e+01	1.691053e-01
2.340000e+01	1.688921e-01
2.350000e+01	1.684150e-01
2.360000e+01	1.679470e-01
2.370000e+01	1.676122e-01
2.380000e+01	1.674095e-01
2.390000e+01	1.672297e-01
2.400000e+01	1.668868e-01
2.410000e+01	1.667310e-01
2.420000e+01	1.665575e-01
2.430000e+01	1.664975e-01
2.440000e+01	1.663885e-01
2.450000e+01	1.664227e-01
2.460000e+01	1.665724e-01
2.470000e+01	1.667499e-01
2.480000e+01	1.668172e-01
2.490000e+01	1.668974e-01
2.500000e+01	1.670539e-01
2.510000e+01	1.672667e-01
2.520000e+01	1.673723e-01
2.530000e+01	1.674240e-01
2.540000e+01	1.674035e-01
2.550000e+01	1.672227e-01
2.560000e+01	1.669767e-01
2.570000e+01	1.666522e-01
2.580000e+01	1.662792e-01
2.590000e+01	1.659461e-01
2.600000e+01	1.661065e-01
2.610000e+01	1.662145e-01
2.620000e+01	1.661726e-01
2.630000e+01	1.664754e-01
2.640000e+01	1.668602e-01
2.650000e+01	1.669833e-01
2.660000e+01	1.670381e-01
2.670000e+01	1.669515e-01
2.680000e+01	1.665937e-01
2.690000e+01	1.664734e-01
2.700000e+01	1.660804e-01
2.710000e+01	1.657972e-01
2.720000e+01	1.656070e-01
2.730000e+01	1.654142e-01
2.740000e+01	1.652402e-01
2.750000e+01	1.649128e-01
2.760000e+01	1.647369e-01
2.770000e+01	1.644212e-01
2.780000e+01	1.641081e-01
2.790000e+01	1.640423e-01
2.800000e+01	1.639621e-01
2.810000e+01	1.636746e-01
2.820000e+01	1.634587e-01
2.830000e+01	1.635941e-01
2.840000e+01	1.643698e-01
2.850000e+01	1.652577e-01
2.860000e+01	1.654583e-01
2.870000e+01	1.659265e-01
2.880000e+01	1.668401e-01
2.890000e+01	1.682139e-01
2.900000e+01	1.691630e-01
2.910000e+01	1.697069e-01
2.920000e+01	1.700608e-01
2.930000e+01	1.706058e-01
2.940000e+01	1.709734e-01
2.950000e+01	1.702501e-01
2.960000e+01	1.693460e-01
2.970000e+01	1.681210e-01
2.980000e+01	1.653561e-01
