#header: N=2	 eta=0.320000	TIME_MAX=30	TERM_TIME=20000	TEMP=0.683881
1.000000e-01	3.251510e-03
2.000000e-01	7.089333e-03
3.000000e-01	1.114124e-02
4.000000e-01	1.532076e-02
5.000000e-01	1.960592e-02
6.000000e-01	2.399247e-02
7.000000e-01	2.844975e-02
8.000000e-01	3.295348e-02
9.000000e-01	3.749001e-02
1.000000e+00	4.200682e-02
1.100000e+00	4.649005e-02
1.200000e+00	5.093188e-02
1.300000e+00	5.532748e-02
1.400000e+00	5.965543e-02
1.500000e+00	6.387058e-02
1.600000e+00	6.797283e-02
1.700000e+00	7.195523e-02
1.800000e+00	7.583382e-02
1.900000e+00	7.961792e-02
2.000000e+00	8.327447e-02
2.100000e+00	8.680495e-02
2.200000e+00	9.020815e-02
2.300000e+00	9.350111e-02
2.400000e+00	9.669739e-02
2.500000e+00	9.977264e-02
2.600000e+00	1.027107e-01
2.700000e+00	1.055359e-01
2.800000e+00	1.082764e-01
2.900000e+00	1.108927e-01
3.000000e+00	1.132878e-01
3.100000e+00	1.155654e-01
3.200000e+00	1.177496e-01
3.300000e+00	1.198137e-01
3.400000e+00	1.218301e-01
3.500000e+00	1.237774e-01
3.600000e+00	1.256616e-01
3.700000e+00	1.275081e-01
3.800000e+00	1.292925e-01
3.900000e+00	1.310215e-01
4.000000e+00	1.327032e-01
4.100000e+00	1.343364e-01
4.200000e+00	1.359788e-01
4.300000e+00	1.375461e-01
4.400000e+00	1.390672e-01
4.500000e+00	1.404403e-01
4.600000e+00	1.417963e-01
4.700000e+00	1.430011e-01
4.800000e+00	1.441639e-01
4.900000e+00	1.452758e-01
5.000000e+00	1.463496e-01
5.100000e+00	1.473190e-01
5.200000e+00	1.482627e-01
5.300000e+00	1.491951e-01
5.400000e+00	1.501384e-01
5.500000e+00	1.510187e-01
5.600000e+00	1.519260e-01
5.700000e+00	1.527848e-01
5.800000e+00	1.535821e-01
5.900000e+00	1.543197e-01
6.000000e+00	1.550525e-01
6.100000e+00	1.557651e-01
6.200000e+00	1.564242e-01
6.300000e+00	1.569920e-01
6.400000e+00	1.575447e-01
6.500000e+00	1.580199e-01
6.600000e+00	1.584396e-01
6.700000e+00	1.589329e-01
6.800000e+00	1.594439e-01
6.900000e+00	1.599759e-01
7.000000e+00	1.604577e-01
7.100000e+00	1.609447e-01
7.200000e+00	1.614836e-01
7.300000e+00	1.620012e-01
7.400000e+00	1.624890e-01
7.500000e+00	1.630665e-01
7.600000e+00	1.634995e-01
7.700000e+00	1.638698e-01
7.800000e+00	1.642380e-01
7.900000e+00	1.646334e-01
8.000000e+00	1.649750e-01
8.100000e+00	1.652112e-01
8.200000e+00	1.653654e-01
8.300000e+00	1.655456e-01
8.400000e+00	1.657302e-01
8.500000e+00	1.660086e-01
8.600000e+00	1.662454e-01
8.700000e+00	1.664706e-01
8.800000e+00	1.665870e-01
8.900000e+00	1.667318e-01
9.000000e+00	1.667935e-01
9.100000e+00	1.667305e-01
9.200000e+00	1.666242e-01
9.300000e+00	1.665359e-01
9.400000e+00	1.665147e-01
9.500000e+00	1.664563e-01
9.600000e+00	1.664464e-01
9.700000e+00	1.664795e-01
9.800000e+00	1.665549e-01
9.900000e+00	1.666898e-01
1.000000e+01	1.669248e-01
1.010000e+01	1.670365e-01
1.020000e+01	1.671234e-01
1.030000e+01	1.671652e-01
1.040000e+01	1.671485e-01
1.050000e+01	1.671272e-01
1.060000e+01	1.672209e-01
1.070000e+01	1.673081e-01
1.080000e+01	1.675176e-01
1.090000e+01	1.676803e-01
1.100000e+01	1.678713e-01
1.110000e+01	1.681212e-01
1.120000e+01	1.684020e-01
1.130000e+01	1.686439e-01
1.140000e+01	1.688442e-01
1.150000e+01	1.689967e-01
1.160000e+01	1.690473e-01
1.170000e+01	1.691464e-01
1.180000e+01	1.692637e-01
1.190000e+01	1.694249e-01
1.200000e+01	1.696291e-01
1.210000e+01	1.697020e-01
1.220000e+01	1.697235e-01
1.230000e+01	1.696844e-01
1.240000e+01	1.696990e-01
1.250000e+01	1.698721e-01
1.260000e+01	1.701234e-01
1.270000e+01	1.702860e-01
1.280000e+01	1.703916e-01
1.290000e+01	1.705084e-01
1.300000e+01	1.706398e-01
1.310000e+01	1.707572e-01
1.320000e+01	1.708388e-01
1.330000e+01	1.709270e-01
1.340000e+01	1.710465e-01
1.350000e+01	1.710812e-01
1.360000e+01	1.710611e-01
1.370000e+01	1.710387e-01
1.380000e+01	1.710235e-01
1.390000e+01	1.709024e-01
1.400000e+01	1.708669e-01
1.410000e+01	1.708525e-01
1.420000e+01	1.708606e-01
1.430000e+01	1.709540e-01
1.440000e+01	1.710617e-01
1.450000e+01	1.710345e-01
1.460000e+01	1.708845e-01
1.470000e+01	1.706903e-01
1.480000e+01	1.704045e-01
1.490000e+01	1.701404e-01
1.500000e+01	1.699800e-01
1.510000e+01	1.698325e-01
1.520000e+01	1.697644e-01
1.530000e+01	1.697384e-01
1.540000e+01	1.697032e-01
1.550000e+01	1.695084e-01
1.560000e+01	1.695152e-01
1.570000e+01	1.693942e-01
1.580000e+01	1.692989e-01
1.590000e+01	1.692680e-01
1.600000e+01	1.692617e-01
1.610000e+01	1.691873e-01
1.620000e+01	1.691114e-01
1.630000e+01	1.689146e-01
1.640000e+01	1.686400e-01
1.650000e+01	1.685735e-01
1.660000e+01	1.684996e-01
1.670000e+01	1.686017e-01
1.680000e+01	1.686042e-01
1.690000e+01	1.685504e-01
1.700000e+01	1.684395e-01
1.710000e+01	1.684075e-01
1.720000e+01	1.683393e-01
1.730000e+01	1.684031e-01
1.740000e+01	1.684575e-01
1.750000e+01	1.684788e-01
1.760000e+01	1.685091e-01
1.770000e+01	1.686179e-01
1.780000e+01	1.685721e-01
1.790000e+01	1.684265e-01
1.800000e+01	1.682079e-01
1.810000e+01	1.679060e-01
1.820000e+01	1.676286e-01
1.830000e+01	1.675470e-01
1.840000e+01	1.674864e-01
1.850000e+01	1.674974e-01
1.860000e+01	1.674183e-01
1.870000e+01	1.674197e-01
1.880000e+01	1.673327e-01
1.890000e+01	1.672450e-01
1.900000e+01	1.672050e-01
1.910000e+01	1.672131e-01
1.920000e+01	1.670006e-01
1.930000e+01	1.667715e-01
1.940000e+01	1.665269e-01
1.950000e+01	1.663745e-01
1.960000e+01	1.663914e-01
1.970000e+01	1.662768e-01
1.980000e+01	1.660565e-01
1.990000e+01	1.659400e-01
2.000000e+01	1.658873e-01
2.010000e+01	1.659317e-01
2.020000e+01	1.660113e-01
2.030000e+01	1.660834e-01
2.040000e+01	1.660497e-01
2.050000e+01	1.659225e-01
2.060000e+01	1.657789e-01
2.070000e+01	1.656991e-01
2.080000e+01	1.656201e-01
2.090000e+01	1.655499e-01
2.100000e+01	1.655774e-01
2.110000e+01	1.654982e-01
2.120000e+01	1.654408e-01
2.130000e+01	1.653846e-01
2.140000e+01	1.654201e-01
2.150000e+01	1.654214e-01
2.160000e+01	1.654796e-01
2.170000e+01	1.655469e-01
2.180000e+01	1.657249e-01
2.190000e+01	1.658810e-01
2.200000e+01	1.660060e-01
2.210000e+01	1.660869e-01
2.220000e+01	1.661442e-01
2.230000e+01	1.660574e-01
2.240000e+01	1.658858e-01
2.250000e+01	1.657814e-01
2.260000e+01	1.657203e-01
2.270000e+01	1.653463e-01
2.280000e+01	1.650762e-01
2.290000e+01	1.649381e-01
2.300000e+01	1.648448e-01
2.310000e+01	1.647965e-01
2.320000e+01	1.648505e-01
2.330000e+01	1.649767e-01
2.340000e+01	1.651042e-01
2.350000e+01	1.653398e-01
2.360000e+01	1.654520e-01
2.370000e+01	1.656071e-01
2.380000e+01	1.658786e-01
2.390000e+01	1.660258e-01
2.400000e+01	1.661529e-01
2.410000e+01	1.661097e-01
2.420000e+01	1.662009e-01
2.430000e+01	1.662723e-01
2.440000e+01	1.662315e-01
2.450000e+01	1.664953e-01
2.460000e+01	1.668179e-01
2.470000e+01	1.669088e-01
2.480000e+01	1.670247e-01
2.490000e+01	1.671771e-01
2.500000e+01	1.672125e-01
2.510000e+01	1.673467e-01
2.520000e+01	1.674128e-01
2.530000e+01	1.675401e-01
2.540000e+01	1.677307e-01
2.550000e+01	1.677475e-01
2.560000e+01	1.676731e-01
2.570000e+01	1.674637e-01
2.580000e+01	1.672116e-01
2.590000e+01	1.672009e-01
2.600000e+01	1.672197e-01
2.610000e+01	1.675706e-01
2.620000e+01	1.676479e-01
2.630000e+01	1.676824e-01
2.640000e+01	1.675812e-01
2.650000e+01	1.674458e-01
2.660000e+01	1.674056e-01
2.670000e+01	1.675671e-01
2.680000e+01	1.678015e-01
2.690000e+01	1.680998e-01
2.700000e+01	1.679643e-01
2.710000e+01	1.677825e-01
2.720000e+01	1.675818e-01
2.730000e+01	1.673369e-01
2.740000e+01	1.669194e-01
2.750000e+01	1.664340e-01
2.760000e+01	1.655596e-01
2.770000e+01	1.648363e-01
2.780000e+01	1.643762e-01
2.790000e+01	1.641671e-01
2.800000e+01	1.637106e-01
2.810000e+01	1.634626e-01
2.820000e+01	1.633491e-01
2.830000e+01	1.631167e-01
2.840000e+01	1.631273e-01
2.850000e+01	1.633184e-01
2.860000e+01	1.632988e-01
2.870000e+01	1.629341e-01
2.880000e+01	1.623989e-01
2.890000e+01	1.616418e-01
2.900000e+01	1.616554e-01
2.910000e+01	1.618382e-01
2.920000e+01	1.614612e-01
2.930000e+01	1.613371e-01
2.940000e+01	1.613750e-01
2.950000e+01	1.621085e-01
2.960000e+01	1.628041e-01
2.970000e+01	1.621840e-01
2.980000e+01	1.615338e-01
