#header: N=2	 eta=0.320000	TIME_MAX=30	TERM_TIME=20000	TEMP=0.658951
1.000000e-01	3.159710e-03
2.000000e-01	6.917896e-03
3.000000e-01	1.088839e-02
4.000000e-01	1.502292e-02
5.000000e-01	1.929324e-02
6.000000e-01	2.367211e-02
7.000000e-01	2.816465e-02
8.000000e-01	3.270459e-02
9.000000e-01	3.725162e-02
1.000000e+00	4.181330e-02
1.100000e+00	4.631189e-02
1.200000e+00	5.073568e-02
1.300000e+00	5.513161e-02
1.400000e+00	5.949690e-02
1.500000e+00	6.382464e-02
1.600000e+00	6.807778e-02
1.700000e+00	7.224942e-02
1.800000e+00	7.634084e-02
1.900000e+00	8.026006e-02
2.000000e+00	8.409655e-02
2.100000e+00	8.784937e-02
2.200000e+00	9.141911e-02
2.300000e+00	9.478638e-02
2.400000e+00	9.805039e-02
2.500000e+00	1.011961e-01
2.600000e+00	1.041939e-01
2.700000e+00	1.070116e-01
2.800000e+00	1.097025e-01
2.900000e+00	1.123164e-01
3.000000e+00	1.147936e-01
3.100000e+00	1.171841e-01
3.200000e+00	1.194964e-01
3.300000e+00	1.217591e-01
3.400000e+00	1.238835e-01
3.500000e+00	1.258773e-01
3.600000e+00	1.277702e-01
3.700000e+00	1.295923e-01
3.800000e+00	1.313058e-01
3.900000e+00	1.328777e-01
4.000000e+00	1.343848e-01
4.100000e+00	1.358957e-01
4.200000e+00	1.373086e-01
4.300000e+00	1.386170e-01
4.400000e+00	1.398334e-01
4.500000e+00	1.411096e-01
4.600000e+00	1.423291e-01
4.700000e+00	1.433951e-01
4.800000e+00	1.444038e-01
4.900000e+00	1.453468e-01
5.000000e+00	1.463231e-01
5.100000e+00	1.473175e-01
5.200000e+00	1.482352e-01
5.300000e+00	1.490385e-01
5.400000e+00	1.498317e-01
5.500000e+00	1.505512e-01
5.600000e+00	1.512589e-01
5.700000e+00	1.518713e-01
5.800000e+00	1.524090e-01
5.900000e+00	1.528871e-01
6.000000e+00	1.533967e-01
6.100000e+00	1.538151e-01
6.200000e+00	1.542611e-01
6.300000e+00	1.547740e-01
6.400000e+00	1.552779e-01
6.500000e+00	1.557762e-01
6.600000e+00	1.562375e-01
6.700000e+00	1.566247e-01
6.800000e+00	1.570387e-01
6.900000e+00	1.574360e-01
7.000000e+00	1.577858e-01
7.100000e+00	1.581304e-01
7.200000e+00	1.585038e-01
7.300000e+00	1.588125e-01
7.400000e+00	1.590476e-01
7.500000e+00	1.592921e-01
7.600000e+00	1.594774e-01
7.700000e+00	1.596609e-01
7.800000e+00	1.598453e-01
7.900000e+00	1.600683e-01
8.000000e+00	1.602807e-01
8.100000e+00	1.604157e-01
8.200000e+00	1.604832e-01
8.300000e+00	1.605083e-01
8.400000e+00	1.605527e-01
8.500000e+00	1.606595e-01
8.600000e+00	1.607499e-01
8.700000e+00	1.608141e-01
8.800000e+00	1.608207e-01
8.900000e+00	1.608525e-01
9.000000e+00	1.608972e-01
9.100000e+00	1.609456e-01
9.200000e+00	1.610032e-01
9.300000e+00	1.609780e-01
9.400000e+00	1.610024e-01
9.500000e+00	1.610222e-01
9.600000e+00	1.610930e-01
9.700000e+00	1.610643e-01
9.800000e+00	1.610356e-01
9.900000e+00	1.610900e-01
1.000000e+01	1.612261e-01
1.010000e+01	1.613595e-01
1.020000e+01	1.614942e-01
1.030000e+01	1.616158e-01
1.040000e+01	1.616698e-01
1.050000e+01	1.617497e-01
1.060000e+01	1.618095e-01
1.070000e+01	1.618916e-01
1.080000e+01	1.619914e-01
1.090000e+01	1.621581e-01
1.100000e+01	1.622800e-01
1.110000e+01	1.623757e-01
1.120000e+01	1.625201e-01
1.130000e+01	1.626177e-01
1.140000e+01	1.627814e-01
1.150000e+01	1.629784e-01
1.160000e+01	1.631903e-01
1.170000e+01	1.633183e-01
1.180000e+01	1.634162e-01
1.190000e+01	1.635313e-01
1.200000e+01	1.636944e-01
1.210000e+01	1.639725e-01
1.220000e+01	1.642551e-01
1.230000e+01	1.645224e-01
1.240000e+01	1.647351e-01
1.250000e+01	1.649276e-01
1.260000e+01	1.650227e-01
1.270000e+01	1.651772e-01
1.280000e+01	1.652855e-01
1.290000e+01	1.654473e-01
1.300000e+01	1.656393e-01
1.310000e+01	1.658662e-01
1.320000e+01	1.660581e-01
1.330000e+01	1.662468e-01
1.340000e+01	1.664695e-01
1.350000e+01	1.666046e-01
1.360000e+01	1.666634e-01
1.370000e+01	1.667049e-01
1.380000e+01	1.666931e-01
1.390000e+01	1.667041e-01
1.400000e+01	1.667326e-01
1.410000e+01	1.667040e-01
1.420000e+01	1.667431e-01
1.430000e+01	1.667144e-01
1.440000e+01	1.666392e-01
1.450000e+01	1.664989e-01
1.460000e+01	1.663130e-01
1.470000e+01	1.660717e-01
1.480000e+01	1.657908e-01
1.490000e+01	1.655150e-01
1.500000e+01	1.653099e-01
1.510000e+01	1.651222e-01
1.520000e+01	1.649448e-01
1.530000e+01	1.647772e-01
1.540000e+01	1.647230e-01
1.550000e+01	1.646589e-01
1.560000e+01	1.645954e-01
1.570000e+01	1.645290e-01
1.580000e+01	1.645314e-01
1.590000e+01	1.644175e-01
1.600000e+01	1.642804e-01
1.610000e+01	1.641460e-01
1.620000e+01	1.640102e-01
1.630000e+01	1.639387e-01
1.640000e+01	1.637085e-01
1.650000e+01	1.634554e-01
1.660000e+01	1.632009e-01
1.670000e+01	1.629577e-01
1.680000e+01	1.625419e-01
1.690000e+01	1.622086e-01
1.700000e+01	1.619417e-01
1.710000e+01	1.618367e-01
1.720000e+01	1.617310e-01
1.730000e+01	1.616729e-01
1.740000e+01	1.614903e-01
1.750000e+01	1.613415e-01
1.760000e+01	1.613303e-01
1.770000e+01	1.612906e-01
1.780000e+01	1.612910e-01
1.790000e+01	1.612506e-01
1.800000e+01	1.611558e-01
1.810000e+01	1.609652e-01
1.820000e+01	1.607751e-01
1.830000e+01	1.605365e-01
1.840000e+01	1.603596e-01
1.850000e+01	1.602048e-01
1.860000e+01	1.600238e-01
1.870000e+01	1.598706e-01
1.880000e+01	1.598224e-01
1.890000e+01	1.597503e-01
1.900000e+01	1.595566e-01
1.910000e+01	1.595485e-01
1.920000e+01	1.595430e-01
1.930000e+01	1.595388e-01
1.940000e+01	1.595522e-01
1.950000e+01	1.595707e-01
1.960000e+01	1.596474e-01
1.970000e+01	1.598142e-01
1.980000e+01	1.601309e-01
1.990000e+01	1.604396e-01
2.000000e+01	1.607448e-01
2.010000e+01	1.610462e-01
2.020000e+01	1.613287e-01
2.030000e+01	1.616997e-01
2.040000e+01	1.620920e-01
2.050000e+01	1.624460e-01
2.060000e+01	1.627760e-01
2.070000e+01	1.628341e-01
2.080000e+01	1.628958e-01
2.090000e+01	1.627750e-01
2.100000e+01	1.627236e-01
2.110000e+01	1.624850e-01
2.120000e+01	1.623977e-01
2.130000e+01	1.623571e-01
2.140000e+01	1.619982e-01
2.150000e+01	1.617438e-01
2.160000e+01	1.614823e-01
2.170000e+01	1.613369e-01
2.180000e+01	1.614639e-01
2.190000e+01	1.615140e-01
2.200000e+01	1.615229e-01
2.210000e+01	1.616459e-01
2.220000e+01	1.617784e-01
2.230000e+01	1.620303e-01
2.240000e+01	1.623679e-01
2.250000e+01	1.624989e-01
2.260000e+01	1.626438e-01
2.270000e+01	1.628798e-01
2.280000e+01	1.630571e-01
2.290000e+01	1.631762e-01
2.300000e+01	1.632317e-01
2.310000e+01	1.634227e-01
2.320000e+01	1.638817e-01
2.330000e+01	1.645199e-01
2.340000e+01	1.651065e-01
2.350000e+01	1.657588e-01
2.360000e+01	1.663901e-01
2.370000e+01	1.668577e-01
2.380000e+01	1.672649e-01
2.390000e+01	1.676361e-01
2.400000e+01	1.679270e-01
2.410000e+01	1.680287e-01
2.420000e+01	1.685795e-01
2.430000e+01	1.692147e-01
2.440000e+01	1.698588e-01
2.450000e+01	1.706140e-01
2.460000e+01	1.713782e-01
2.470000e+01	1.720584e-01
2.480000e+01	1.725073e-01
2.490000e+01	1.730800e-01
2.500000e+01	1.739255e-01
2.510000e+01	1.745919e-01
2.520000e+01	1.752908e-01
2.530000e+01	1.759199e-01
2.540000e+01	1.764422e-01
2.550000e+01	1.767744e-01
2.560000e+01	1.770467e-01
2.570000e+01	1.772501e-01
2.580000e+01	1.775305e-01
2.590000e+01	1.778069e-01
2.600000e+01	1.780516e-01
2.610000e+01	1.781871e-01
2.620000e+01	1.783661e-01
2.630000e+01	1.785080e-01
2.640000e+01	1.786861e-01
2.650000e+01	1.786902e-01
2.660000e+01	1.787131e-01
2.670000e+01	1.784887e-01
2.680000e+01	1.782128e-01
2.690000e+01	1.777676e-01
2.700000e+01	1.775140e-01
2.710000e+01	1.773964e-01
2.720000e+01	1.769168e-01
2.730000e+01	1.765322e-01
2.740000e+01	1.755667e-01
2.750000e+01	1.748472e-01
2.760000e+01	1.743508e-01
2.770000e+01	1.738494e-01
2.780000e+01	1.734091e-01
2.790000e+01	1.729766e-01
2.800000e+01	1.726107e-01
2.810000e+01	1.723362e-01
2.820000e+01	1.717643e-01
2.830000e+01	1.710120e-01
2.840000e+01	1.703230e-01
2.850000e+01	1.700189e-01
2.860000e+01	1.700087e-01
2.870000e+01	1.700558e-01
2.880000e+01	1.696633e-01
2.890000e+01	1.693713e-01
2.900000e+01	1.691460e-01
2.910000e+01	1.683685e-01
2.920000e+01	1.680580e-01
2.930000e+01	1.675308e-01
2.940000e+01	1.673782e-01
2.950000e+01	1.678197e-01
2.960000e+01	1.692138e-01
2.970000e+01	1.684599e-01
2.980000e+01	1.662941e-01
