#header: N=2	 eta=0.330000	TIME_MAX=30	TERM_TIME=20000	TEMP=0.661108
1.000000e-01	3.071812e-03
2.000000e-01	6.710899e-03
3.000000e-01	1.059450e-02
4.000000e-01	1.463326e-02
5.000000e-01	1.881196e-02
6.000000e-01	2.310603e-02
7.000000e-01	2.747833e-02
8.000000e-01	3.189760e-02
9.000000e-01	3.633030e-02
1.000000e+00	4.074554e-02
1.100000e+00	4.513686e-02
1.200000e+00	4.949462e-02
1.300000e+00	5.378625e-02
1.400000e+00	5.799739e-02
1.500000e+00	6.211622e-02
1.600000e+00	6.611776e-02
1.700000e+00	7.000380e-02
1.800000e+00	7.381158e-02
1.900000e+00	7.743134e-02
2.000000e+00	8.094465e-02
2.100000e+00	8.435526e-02
2.200000e+00	8.762564e-02
2.300000e+00	9.073890e-02
2.400000e+00	9.372137e-02
2.500000e+00	9.660771e-02
2.600000e+00	9.938665e-02
2.700000e+00	1.020628e-01
2.800000e+00	1.046825e-01
2.900000e+00	1.072039e-01
3.000000e+00	1.097122e-01
3.100000e+00	1.120623e-01
3.200000e+00	1.143895e-01
3.300000e+00	1.166719e-01
3.400000e+00	1.188274e-01
3.500000e+00	1.208722e-01
3.600000e+00	1.228241e-01
3.700000e+00	1.247335e-01
3.800000e+00	1.265648e-01
3.900000e+00	1.283321e-01
4.000000e+00	1.299919e-01
4.100000e+00	1.315363e-01
4.200000e+00	1.330192e-01
4.300000e+00	1.344243e-01
4.400000e+00	1.358311e-01
4.500000e+00	1.371791e-01
4.600000e+00	1.384309e-01
4.700000e+00	1.396014e-01
4.800000e+00	1.407190e-01
4.900000e+00	1.418238e-01
5.000000e+00	1.427956e-01
5.100000e+00	1.437428e-01
5.200000e+00	1.446389e-01
5.300000e+00	1.454483e-01
5.400000e+00	1.462759e-01
5.500000e+00	1.470798e-01
5.600000e+00	1.479093e-01
5.700000e+00	1.486422e-01
5.800000e+00	1.492568e-01
5.900000e+00	1.498711e-01
6.000000e+00	1.504028e-01
6.100000e+00	1.509245e-01
6.200000e+00	1.514566e-01
6.300000e+00	1.519684e-01
6.400000e+00	1.524830e-01
6.500000e+00	1.529441e-01
6.600000e+00	1.534208e-01
6.700000e+00	1.539034e-01
6.800000e+00	1.544094e-01
6.900000e+00	1.547967e-01
7.000000e+00	1.551753e-01
7.100000e+00	1.556204e-01
7.200000e+00	1.560094e-01
7.300000e+00	1.563614e-01
7.400000e+00	1.568091e-01
7.500000e+00	1.572509e-01
7.600000e+00	1.576347e-01
7.700000e+00	1.580471e-01
7.800000e+00	1.584439e-01
7.900000e+00	1.587029e-01
8.000000e+00	1.589710e-01
8.100000e+00	1.591909e-01
8.200000e+00	1.594773e-01
8.300000e+00	1.597543e-01
8.400000e+00	1.600748e-01
8.500000e+00	1.603819e-01
8.600000e+00	1.606654e-01
8.700000e+00	1.609320e-01
8.800000e+00	1.612833e-01
8.900000e+00	1.617011e-01
9.000000e+00	1.621167e-01
9.100000e+00	1.626041e-01
9.200000e+00	1.630878e-01
9.300000e+00	1.635600e-01
9.400000e+00	1.639865e-01
9.500000e+00	1.643670e-01
9.600000e+00	1.646793e-01
9.700000e+00	1.649270e-01
9.800000e+00	1.651798e-01
9.900000e+00	1.653743e-01
1.000000e+01	1.656373e-01
1.010000e+01	1.659140e-01
1.020000e+01	1.661690e-01
1.030000e+01	1.663484e-01
1.040000e+01	1.665022e-01
1.050000e+01	1.666397e-01
1.060000e+01	1.666830e-01
1.070000e+01	1.667917e-01
1.080000e+01	1.669288e-01
1.090000e+01	1.670639e-01
1.100000e+01	1.671364e-01
1.110000e+01	1.671673e-01
1.120000e+01	1.672373e-01
1.130000e+01	1.674117e-01
1.140000e+01	1.675511e-01
1.150000e+01	1.676065e-01
1.160000e+01	1.676365e-01
1.170000e+01	1.676950e-01
1.180000e+01	1.677930e-01
1.190000e+01	1.679420e-01
1.200000e+01	1.680649e-01
1.210000e+01	1.682605e-01
1.220000e+01	1.684071e-01
1.230000e+01	1.684273e-01
1.240000e+01	1.684275e-01
1.250000e+01	1.683629e-01
1.260000e+01	1.682103e-01
1.270000e+01	1.681239e-01
1.280000e+01	1.680817e-01
1.290000e+01	1.680109e-01
1.300000e+01	1.680059e-01
1.310000e+01	1.678864e-01
1.320000e+01	1.676935e-01
1.330000e+01	1.675012e-01
1.340000e+01	1.673693e-01
1.350000e+01	1.672323e-01
1.360000e+01	1.671506e-01
1.370000e+01	1.671027e-01
1.380000e+01	1.670186e-01
1.390000e+01	1.669832e-01
1.400000e+01	1.669211e-01
1.410000e+01	1.668975e-01
1.420000e+01	1.667798e-01
1.430000e+01	1.667670e-01
1.440000e+01	1.667659e-01
1.450000e+01	1.667807e-01
1.460000e+01	1.667472e-01
1.470000e+01	1.667818e-01
1.480000e+01	1.669235e-01
1.490000e+01	1.670568e-01
1.500000e+01	1.671991e-01
1.510000e+01	1.672714e-01
1.520000e+01	1.674516e-01
1.530000e+01	1.676540e-01
1.540000e+01	1.677980e-01
1.550000e+01	1.680170e-01
1.560000e+01	1.681797e-01
1.570000e+01	1.682198e-01
1.580000e+01	1.682510e-01
1.590000e+01	1.682195e-01
1.600000e+01	1.682835e-01
1.610000e+01	1.683138e-01
1.620000e+01	1.682648e-01
1.630000e+01	1.682005e-01
1.640000e+01	1.681926e-01
1.650000e+01	1.681675e-01
1.660000e+01	1.681380e-01
1.670000e+01	1.681474e-01
1.680000e+01	1.681161e-01
1.690000e+01	1.681680e-01
1.700000e+01	1.681602e-01
1.710000e+01	1.681467e-01
1.720000e+01	1.680589e-01
1.730000e+01	1.680539e-01
1.740000e+01	1.679629e-01
1.750000e+01	1.678323e-01
1.760000e+01	1.677323e-01
1.770000e+01	1.675785e-01
1.780000e+01	1.675330e-01
1.790000e+01	1.674036e-01
1.800000e+01	1.672205e-01
1.810000e+01	1.671068e-01
1.820000e+01	1.670452e-01
1.830000e+01	1.668080e-01
1.840000e+01	1.666421e-01
1.850000e+01	1.664334e-01
1.860000e+01	1.661977e-01
1.870000e+01	1.659457e-01
1.880000e+01	1.657721e-01
1.890000e+01	1.656482e-01
1.900000e+01	1.655679e-01
1.910000e+01	1.653678e-01
1.920000e+01	1.652088e-01
1.930000e+01	1.649975e-01
1.940000e+01	1.649463e-01
1.950000e+01	1.647886e-01
1.960000e+01	1.646351e-01
1.970000e+01	1.644981e-01
1.980000e+01	1.643350e-01
1.990000e+01	1.642437e-01
2.000000e+01	1.641882e-01
2.010000e+01	1.639590e-01
2.020000e+01	1.636638e-01
2.030000e+01	1.633821e-01
2.040000e+01	1.632220e-01
2.050000e+01	1.631223e-01
2.060000e+01	1.630177e-01
2.070000e+01	1.628152e-01
2.080000e+01	1.627167e-01
2.090000e+01	1.626714e-01
2.100000e+01	1.626743e-01
2.110000e+01	1.627460e-01
2.120000e+01	1.626222e-01
2.130000e+01	1.624727e-01
2.140000e+01	1.624209e-01
2.150000e+01	1.623812e-01
2.160000e+01	1.623511e-01
2.170000e+01	1.623246e-01
2.180000e+01	1.623130e-01
2.190000e+01	1.624664e-01
2.200000e+01	1.625635e-01
2.210000e+01	1.625873e-01
2.220000e+01	1.626938e-01
2.230000e+01	1.627701e-01
2.240000e+01	1.628384e-01
2.250000e+01	1.630047e-01
2.260000e+01	1.631666e-01
2.270000e+01	1.631506e-01
2.280000e+01	1.632006e-01
2.290000e+01	1.631475e-01
2.300000e+01	1.631310e-01
2.310000e+01	1.631647e-01
2.320000e+01	1.631549e-01
2.330000e+01	1.631647e-01
2.340000e+01	1.633173e-01
2.350000e+01	1.636622e-01
2.360000e+01	1.639861e-01
2.370000e+01	1.643159e-01
2.380000e+01	1.648209e-01
2.390000e+01	1.652154e-01
2.400000e+01	1.655346e-01
2.410000e+01	1.659240e-01
2.420000e+01	1.663356e-01
2.430000e+01	1.670101e-01
2.440000e+01	1.676356e-01
2.450000e+01	1.684417e-01
2.460000e+01	1.691547e-01
2.470000e+01	1.698639e-01
2.480000e+01	1.704284e-01
2.490000e+01	1.709220e-01
2.500000e+01	1.712478e-01
2.510000e+01	1.714882e-01
2.520000e+01	1.714717e-01
2.530000e+01	1.715539e-01
2.540000e+01	1.716189e-01
2.550000e+01	1.718372e-01
2.560000e+01	1.718614e-01
2.570000e+01	1.715354e-01
2.580000e+01	1.713605e-01
2.590000e+01	1.713003e-01
2.600000e+01	1.715471e-01
2.610000e+01	1.718579e-01
2.620000e+01	1.722356e-01
2.630000e+01	1.725063e-01
2.640000e+01	1.728164e-01
2.650000e+01	1.727950e-01
2.660000e+01	1.728927e-01
2.670000e+01	1.729846e-01
2.680000e+01	1.734128e-01
2.690000e+01	1.735233e-01
2.700000e+01	1.735360e-01
2.710000e+01	1.733347e-01
2.720000e+01	1.732696e-01
2.730000e+01	1.733255e-01
2.740000e+01	1.733369e-01
2.750000e+01	1.731836e-01
2.760000e+01	1.731525e-01
2.770000e+01	1.727540e-01
2.780000e+01	1.722203e-01
2.790000e+01	1.721565e-01
2.800000e+01	1.720446e-01
2.810000e+01	1.721671e-01
2.820000e+01	1.716987e-01
2.830000e+01	1.713453e-01
2.840000e+01	1.711026e-01
2.850000e+01	1.708998e-01
2.860000e+01	1.705287e-01
2.870000e+01	1.695145e-01
2.880000e+01	1.692933e-01
2.890000e+01	1.695113e-01
2.900000e+01	1.697052e-01
2.910000e+01	1.691334e-01
2.920000e+01	1.681989e-01
2.930000e+01	1.682429e-01
2.940000e+01	1.683679e-01
2.950000e+01	1.684561e-01
2.960000e+01	1.685364e-01
2.970000e+01	1.697219e-01
2.980000e+01	1.697228e-01
