#header: N=2	 eta=0.330000	TIME_MAX=30	TERM_TIME=20000	TEMP=0.654276
1.000000e-01	3.091876e-03
2.000000e-01	6.774958e-03
3.000000e-01	1.066749e-02
4.000000e-01	1.471824e-02
5.000000e-01	1.889547e-02
6.000000e-01	2.321119e-02
7.000000e-01	2.763468e-02
8.000000e-01	3.211538e-02
9.000000e-01	3.663729e-02
1.000000e+00	4.114134e-02
1.100000e+00	4.566623e-02
1.200000e+00	5.018752e-02
1.300000e+00	5.466581e-02
1.400000e+00	5.908148e-02
1.500000e+00	6.344776e-02
1.600000e+00	6.773061e-02
1.700000e+00	7.193221e-02
1.800000e+00	7.606096e-02
1.900000e+00	8.002246e-02
2.000000e+00	8.383319e-02
2.100000e+00	8.750164e-02
2.200000e+00	9.102716e-02
2.300000e+00	9.443724e-02
2.400000e+00	9.780981e-02
2.500000e+00	1.010698e-01
2.600000e+00	1.041437e-01
2.700000e+00	1.071337e-01
2.800000e+00	1.099686e-01
2.900000e+00	1.126209e-01
3.000000e+00	1.152176e-01
3.100000e+00	1.177299e-01
3.200000e+00	1.201449e-01
3.300000e+00	1.224337e-01
3.400000e+00	1.246234e-01
3.500000e+00	1.266859e-01
3.600000e+00	1.285969e-01
3.700000e+00	1.304557e-01
3.800000e+00	1.321801e-01
3.900000e+00	1.338649e-01
4.000000e+00	1.354404e-01
4.100000e+00	1.369167e-01
4.200000e+00	1.383504e-01
4.300000e+00	1.396765e-01
4.400000e+00	1.409159e-01
4.500000e+00	1.420204e-01
4.600000e+00	1.430239e-01
4.700000e+00	1.440290e-01
4.800000e+00	1.449735e-01
4.900000e+00	1.458556e-01
5.000000e+00	1.466196e-01
5.100000e+00	1.474539e-01
5.200000e+00	1.483219e-01
5.300000e+00	1.491360e-01
5.400000e+00	1.498474e-01
5.500000e+00	1.506382e-01
5.600000e+00	1.513721e-01
5.700000e+00	1.520768e-01
5.800000e+00	1.526919e-01
5.900000e+00	1.533249e-01
6.000000e+00	1.539110e-01
6.100000e+00	1.544474e-01
6.200000e+00	1.549784e-01
6.300000e+00	1.555883e-01
6.400000e+00	1.561602e-01
6.500000e+00	1.567957e-01
6.600000e+00	1.574467e-01
6.700000e+00	1.580901e-01
6.800000e+00	1.586625e-01
6.900000e+00	1.591649e-01
7.000000e+00	1.596980e-01
7.100000e+00	1.601855e-01
7.200000e+00	1.606350e-01
7.300000e+00	1.610338e-01
7.400000e+00	1.613756e-01
7.500000e+00	1.617792e-01
7.600000e+00	1.620702e-01
7.700000e+00	1.623029e-01
7.800000e+00	1.624950e-01
7.900000e+00	1.627792e-01
8.000000e+00	1.629933e-01
8.100000e+00	1.631703e-01
8.200000e+00	1.633887e-01
8.300000e+00	1.635879e-01
8.400000e+00	1.637551e-01
8.500000e+00	1.638646e-01
8.600000e+00	1.638672e-01
8.700000e+00	1.639171e-01
8.800000e+00	1.638503e-01
8.900000e+00	1.637943e-01
9.000000e+00	1.637517e-01
9.100000e+00	1.638626e-01
9.200000e+00	1.638667e-01
9.300000e+00	1.638590e-01
9.400000e+00	1.638631e-01
9.500000e+00	1.638847e-01
9.600000e+00	1.639148e-01
9.700000e+00	1.639667e-01
9.800000e+00	1.640664e-01
9.900000e+00	1.641499e-01
1.000000e+01	1.642159e-01
1.010000e+01	1.642647e-01
1.020000e+01	1.643891e-01
1.030000e+01	1.644810e-01
1.040000e+01	1.646213e-01
1.050000e+01	1.647410e-01
1.060000e+01	1.647905e-01
1.070000e+01	1.648624e-01
1.080000e+01	1.650126e-01
1.090000e+01	1.651566e-01
1.100000e+01	1.653758e-01
1.110000e+01	1.654921e-01
1.120000e+01	1.655364e-01
1.130000e+01	1.655283e-01
1.140000e+01	1.655177e-01
1.150000e+01	1.654405e-01
1.160000e+01	1.653672e-01
1.170000e+01	1.652296e-01
1.180000e+01	1.651051e-01
1.190000e+01	1.650376e-01
1.200000e+01	1.648941e-01
1.210000e+01	1.648452e-01
1.220000e+01	1.648489e-01
1.230000e+01	1.649361e-01
1.240000e+01	1.650702e-01
1.250000e+01	1.652159e-01
1.260000e+01	1.653300e-01
1.270000e+01	1.653619e-01
1.280000e+01	1.654118e-01
1.290000e+01	1.654736e-01
1.300000e+01	1.654969e-01
1.310000e+01	1.655232e-01
1.320000e+01	1.655146e-01
1.330000e+01	1.654517e-01
1.340000e+01	1.654081e-01
1.350000e+01	1.653442e-01
1.360000e+01	1.653051e-01
1.370000e+01	1.653953e-01
1.380000e+01	1.655939e-01
1.390000e+01	1.658234e-01
1.400000e+01	1.660986e-01
1.410000e+01	1.662881e-01
1.420000e+01	1.665648e-01
1.430000e+01	1.668456e-01
1.440000e+01	1.671418e-01
1.450000e+01	1.673847e-01
1.460000e+01	1.676288e-01
1.470000e+01	1.678766e-01
1.480000e+01	1.680666e-01
1.490000e+01	1.682168e-01
1.500000e+01	1.682340e-01
1.510000e+01	1.682299e-01
1.520000e+01	1.682871e-01
1.530000e+01	1.683591e-01
1.540000e+01	1.682825e-01
1.550000e+01	1.683057e-01
1.560000e+01	1.683176e-01
1.570000e+01	1.683897e-01
1.580000e+01	1.683321e-01
1.590000e+01	1.682954e-01
1.600000e+01	1.682423e-01
1.610000e+01	1.682191e-01
1.620000e+01	1.684006e-01
1.630000e+01	1.685072e-01
1.640000e+01	1.687011e-01
1.650000e+01	1.689363e-01
1.660000e+01	1.692439e-01
1.670000e+01	1.695942e-01
1.680000e+01	1.699530e-01
1.690000e+01	1.702258e-01
1.700000e+01	1.704438e-01
1.710000e+01	1.706592e-01
1.720000e+01	1.707923e-01
1.730000e+01	1.709581e-01
1.740000e+01	1.711246e-01
1.750000e+01	1.712593e-01
1.760000e+01	1.714283e-01
1.770000e+01	1.715291e-01
1.780000e+01	1.716249e-01
1.790000e+01	1.717212e-01
1.800000e+01	1.716935e-01
1.810000e+01	1.717098e-01
1.820000e+01	1.717171e-01
1.830000e+01	1.716887e-01
1.840000e+01	1.716378e-01
1.850000e+01	1.716768e-01
1.860000e+01	1.717379e-01
1.870000e+01	1.717830e-01
1.880000e+01	1.718087e-01
1.890000e+01	1.717816e-01
1.900000e+01	1.718357e-01
1.910000e+01	1.719243e-01
1.920000e+01	1.720358e-01
1.930000e+01	1.722499e-01
1.940000e+01	1.723554e-01
1.950000e+01	1.726175e-01
1.960000e+01	1.728728e-01
1.970000e+01	1.729995e-01
1.980000e+01	1.731427e-01
1.990000e+01	1.731018e-01
2.000000e+01	1.730494e-01
2.010000e+01	1.730819e-01
2.020000e+01	1.731400e-01
2.030000e+01	1.732971e-01
2.040000e+01	1.734402e-01
2.050000e+01	1.734246e-01
2.060000e+01	1.733545e-01
2.070000e+01	1.734510e-01
2.080000e+01	1.734884e-01
2.090000e+01	1.734620e-01
2.100000e+01	1.734391e-01
2.110000e+01	1.733195e-01
2.120000e+01	1.733803e-01
2.130000e+01	1.734698e-01
2.140000e+01	1.736855e-01
2.150000e+01	1.738404e-01
2.160000e+01	1.739787e-01
2.170000e+01	1.740757e-01
2.180000e+01	1.740709e-01
2.190000e+01	1.740203e-01
2.200000e+01	1.737662e-01
2.210000e+01	1.735410e-01
2.220000e+01	1.733350e-01
2.230000e+01	1.728534e-01
2.240000e+01	1.725864e-01
2.250000e+01	1.724190e-01
2.260000e+01	1.722168e-01
2.270000e+01	1.719326e-01
2.280000e+01	1.717105e-01
2.290000e+01	1.714037e-01
2.300000e+01	1.710910e-01
2.310000e+01	1.708307e-01
2.320000e+01	1.706072e-01
2.330000e+01	1.703149e-01
2.340000e+01	1.700153e-01
2.350000e+01	1.696895e-01
2.360000e+01	1.693475e-01
2.370000e+01	1.689493e-01
2.380000e+01	1.686598e-01
2.390000e+01	1.682989e-01
2.400000e+01	1.677725e-01
2.410000e+01	1.672513e-01
2.420000e+01	1.667896e-01
2.430000e+01	1.665368e-01
2.440000e+01	1.664400e-01
2.450000e+01	1.661707e-01
2.460000e+01	1.657179e-01
2.470000e+01	1.653985e-01
2.480000e+01	1.650282e-01
2.490000e+01	1.646836e-01
2.500000e+01	1.641462e-01
2.510000e+01	1.635712e-01
2.520000e+01	1.630234e-01
2.530000e+01	1.625886e-01
2.540000e+01	1.621041e-01
2.550000e+01	1.617195e-01
2.560000e+01	1.611972e-01
2.570000e+01	1.607588e-01
2.580000e+01	1.604410e-01
2.590000e+01	1.603859e-01
2.600000e+01	1.604278e-01
2.610000e+01	1.603768e-01
2.620000e+01	1.602076e-01
2.630000e+01	1.601024e-01
2.640000e+01	1.600726e-01
2.650000e+01	1.601522e-01
2.660000e+01	1.602878e-01
2.670000e+01	1.603525e-01
2.680000e+01	1.603965e-01
2.690000e+01	1.605747e-01
2.700000e+01	1.604919e-01
2.710000e+01	1.606507e-01
2.720000e+01	1.608551e-01
2.730000e+01	1.607209e-01
2.740000e+01	1.605028e-01
2.750000e+01	1.605071e-01
2.760000e+01	1.607443e-01
2.770000e+01	1.608943e-01
2.780000e+01	1.608606e-01
2.790000e+01	1.605725e-01
2.800000e+01	1.603489e-01
2.810000e+01	1.600339e-01
2.820000e+01	1.599367e-01
2.830000e+01	1.604988e-01
2.840000e+01	1.606368e-01
2.850000e+01	1.607479e-01
2.860000e+01	1.609785e-01
2.870000e+01	1.616034e-01
2.880000e+01	1.620544e-01
2.890000e+01	1.624778e-01
2.900000e+01	1.628520e-01
2.910000e+01	1.629854e-01
2.920000e+01	1.631802e-01
2.930000e+01	1.632847e-01
2.940000e+01	1.641041e-01
2.950000e+01	1.651452e-01
2.960000e+01	1.646627e-01
2.970000e+01	1.639105e-01
2.980000e+01	1.644807e-01
