#header: N=2	 eta=0.340000	TIME_MAX=30	TERM_TIME=20000	TEMP=0.701466
1.000000e-01	3.152663e-03
2.000000e-01	6.845252e-03
3.000000e-01	1.079120e-02
4.000000e-01	1.489266e-02
5.000000e-01	1.915254e-02
6.000000e-01	2.356434e-02
7.000000e-01	2.803973e-02
8.000000e-01	3.257742e-02
9.000000e-01	3.715529e-02
1.000000e+00	4.171016e-02
1.100000e+00	4.623796e-02
1.200000e+00	5.075473e-02
1.300000e+00	5.524304e-02
1.400000e+00	5.968496e-02
1.500000e+00	6.401022e-02
1.600000e+00	6.824757e-02
1.700000e+00	7.234157e-02
1.800000e+00	7.633594e-02
1.900000e+00	8.017534e-02
2.000000e+00	8.392062e-02
2.100000e+00	8.756321e-02
2.200000e+00	9.104319e-02
2.300000e+00	9.438581e-02
2.400000e+00	9.763236e-02
2.500000e+00	1.007367e-01
2.600000e+00	1.036528e-01
2.700000e+00	1.064142e-01
2.800000e+00	1.090995e-01
2.900000e+00	1.116740e-01
3.000000e+00	1.141513e-01
3.100000e+00	1.164658e-01
3.200000e+00	1.186788e-01
3.300000e+00	1.208122e-01
3.400000e+00	1.229278e-01
3.500000e+00	1.249801e-01
3.600000e+00	1.268541e-01
3.700000e+00	1.286214e-01
3.800000e+00	1.303236e-01
3.900000e+00	1.319419e-01
4.000000e+00	1.335127e-01
4.100000e+00	1.350599e-01
4.200000e+00	1.364816e-01
4.300000e+00	1.379246e-01
4.400000e+00	1.393102e-01
4.500000e+00	1.405439e-01
4.600000e+00	1.416907e-01
4.700000e+00	1.428584e-01
4.800000e+00	1.440086e-01
4.900000e+00	1.450445e-01
5.000000e+00	1.460394e-01
5.100000e+00	1.469257e-01
5.200000e+00	1.477737e-01
5.300000e+00	1.485872e-01
5.400000e+00	1.493949e-01
5.500000e+00	1.501462e-01
5.600000e+00	1.508620e-01
5.700000e+00	1.515322e-01
5.800000e+00	1.522286e-01
5.900000e+00	1.528851e-01
6.000000e+00	1.534779e-01
6.100000e+00	1.540928e-01
6.200000e+00	1.546825e-01
6.300000e+00	1.552838e-01
6.400000e+00	1.558009e-01
6.500000e+00	1.563730e-01
6.600000e+00	1.569347e-01
6.700000e+00	1.574996e-01
6.800000e+00	1.581286e-01
6.900000e+00	1.586771e-01
7.000000e+00	1.591220e-01
7.100000e+00	1.595489e-01
7.200000e+00	1.600420e-01
7.300000e+00	1.604926e-01
7.400000e+00	1.609329e-01
7.500000e+00	1.613478e-01
7.600000e+00	1.615946e-01
7.700000e+00	1.618286e-01
7.800000e+00	1.620640e-01
7.900000e+00	1.622703e-01
8.000000e+00	1.625888e-01
8.100000e+00	1.629159e-01
8.200000e+00	1.631795e-01
8.300000e+00	1.635023e-01
8.400000e+00	1.638275e-01
8.500000e+00	1.641516e-01
8.600000e+00	1.644881e-01
8.700000e+00	1.647825e-01
8.800000e+00	1.651194e-01
8.900000e+00	1.653781e-01
9.000000e+00	1.656119e-01
9.100000e+00	1.658459e-01
9.200000e+00	1.661276e-01
9.300000e+00	1.662798e-01
9.400000e+00	1.665088e-01
9.500000e+00	1.666787e-01
9.600000e+00	1.669217e-01
9.700000e+00	1.670359e-01
9.800000e+00	1.671768e-01
9.900000e+00	1.672748e-01
1.000000e+01	1.673137e-01
1.010000e+01	1.673161e-01
1.020000e+01	1.673864e-01
1.030000e+01	1.674313e-01
1.040000e+01	1.674090e-01
1.050000e+01	1.674602e-01
1.060000e+01	1.674128e-01
1.070000e+01	1.673190e-01
1.080000e+01	1.673132e-01
1.090000e+01	1.672612e-01
1.100000e+01	1.671846e-01
1.110000e+01	1.671325e-01
1.120000e+01	1.671100e-01
1.130000e+01	1.669730e-01
1.140000e+01	1.667596e-01
1.150000e+01	1.665442e-01
1.160000e+01	1.663380e-01
1.170000e+01	1.661541e-01
1.180000e+01	1.659662e-01
1.190000e+01	1.657874e-01
1.200000e+01	1.657331e-01
1.210000e+01	1.657081e-01
1.220000e+01	1.656352e-01
1.230000e+01	1.656288e-01
1.240000e+01	1.656476e-01
1.250000e+01	1.655948e-01
1.260000e+01	1.655254e-01
1.270000e+01	1.653955e-01
1.280000e+01	1.652033e-01
1.290000e+01	1.649991e-01
1.300000e+01	1.647532e-01
1.310000e+01	1.644529e-01
1.320000e+01	1.642622e-01
1.330000e+01	1.641412e-01
1.340000e+01	1.640290e-01
1.350000e+01	1.640470e-01
1.360000e+01	1.641232e-01
1.370000e+01	1.642377e-01
1.380000e+01	1.644308e-01
1.390000e+01	1.646699e-01
1.400000e+01	1.648739e-01
1.410000e+01	1.650881e-01
1.420000e+01	1.652617e-01
1.430000e+01	1.654235e-01
1.440000e+01	1.654839e-01
1.450000e+01	1.655419e-01
1.460000e+01	1.655583e-01
1.470000e+01	1.656376e-01
1.480000e+01	1.656836e-01
1.490000e+01	1.657315e-01
1.500000e+01	1.657736e-01
1.510000e+01	1.659329e-01
1.520000e+01	1.661378e-01
1.530000e+01	1.663624e-01
1.540000e+01	1.665528e-01
1.550000e+01	1.666818e-01
1.560000e+01	1.668171e-01
1.570000e+01	1.668992e-01
1.580000e+01	1.668493e-01
1.590000e+01	1.668443e-01
1.600000e+01	1.669678e-01
1.610000e+01	1.671076e-01
1.620000e+01	1.672775e-01
1.630000e+01	1.673975e-01
1.640000e+01	1.674985e-01
1.650000e+01	1.676691e-01
1.660000e+01	1.678298e-01
1.670000e+01	1.679211e-01
1.680000e+01	1.678919e-01
1.690000e+01	1.678921e-01
1.700000e+01	1.677958e-01
1.710000e+01	1.676429e-01
1.720000e+01	1.675181e-01
1.730000e+01	1.674448e-01
1.740000e+01	1.673106e-01
1.750000e+01	1.669921e-01
1.760000e+01	1.666991e-01
1.770000e+01	1.664096e-01
1.780000e+01	1.662714e-01
1.790000e+01	1.662174e-01
1.800000e+01	1.662641e-01
1.810000e+01	1.662802e-01
1.820000e+01	1.662572e-01
1.830000e+01	1.662698e-01
1.840000e+01	1.662204e-01
1.850000e+01	1.662665e-01
1.860000e+01	1.662877e-01
1.870000e+01	1.663656e-01
1.880000e+01	1.663217e-01
1.890000e+01	1.662394e-01
1.900000e+01	1.663342e-01
1.910000e+01	1.663587e-01
1.920000e+01	1.664988e-01
1.930000e+01	1.666098e-01
1.940000e+01	1.667594e-01
1.950000e+01	1.668364e-01
1.960000e+01	1.669493e-01
1.970000e+01	1.671263e-01
1.980000e+01	1.673341e-01
1.990000e+01	1.674985e-01
2.000000e+01	1.676029e-01
2.010000e+01	1.676897e-01
2.020000e+01	1.677289e-01
2.030000e+01	1.677427e-01
2.040000e+01	1.676983e-01
2.050000e+01	1.677446e-01
2.060000e+01	1.678447e-01
2.070000e+01	1.679456e-01
2.080000e+01	1.680125e-01
2.090000e+01	1.681139e-01
2.100000e+01	1.682573e-01
2.110000e+01	1.683404e-01
2.120000e+01	1.684941e-01
2.130000e+01	1.686552e-01
2.140000e+01	1.688440e-01
2.150000e+01	1.690348e-01
2.160000e+01	1.691773e-01
2.170000e+01	1.692818e-01
2.180000e+01	1.693188e-01
2.190000e+01	1.694550e-01
2.200000e+01	1.696423e-01
2.210000e+01	1.697369e-01
2.220000e+01	1.700244e-01
2.230000e+01	1.699974e-01
2.240000e+01	1.698588e-01
2.250000e+01	1.696253e-01
2.260000e+01	1.694923e-01
2.270000e+01	1.691982e-01
2.280000e+01	1.689586e-01
2.290000e+01	1.688111e-01
2.300000e+01	1.687209e-01
2.310000e+01	1.686478e-01
2.320000e+01	1.686760e-01
2.330000e+01	1.686835e-01
2.340000e+01	1.686097e-01
2.350000e+01	1.686724e-01
2.360000e+01	1.686744e-01
2.370000e+01	1.686927e-01
2.380000e+01	1.686298e-01
2.390000e+01	1.685075e-01
2.400000e+01	1.684055e-01
2.410000e+01	1.681727e-01
2.420000e+01	1.681940e-01
2.430000e+01	1.682585e-01
2.440000e+01	1.682176e-01
2.450000e+01	1.681962e-01
2.460000e+01	1.680464e-01
2.470000e+01	1.680732e-01
2.480000e+01	1.680511e-01
2.490000e+01	1.681574e-01
2.500000e+01	1.682702e-01
2.510000e+01	1.683251e-01
2.520000e+01	1.684312e-01
2.530000e+01	1.686735e-01
2.540000e+01	1.688993e-01
2.550000e+01	1.690212e-01
2.560000e+01	1.691273e-01
2.570000e+01	1.693613e-01
2.580000e+01	1.696896e-01
2.590000e+01	1.698972e-01
2.600000e+01	1.703356e-01
2.610000e+01	1.706664e-01
2.620000e+01	1.708543e-01
2.630000e+01	1.708656e-01
2.640000e+01	1.707386e-01
2.650000e+01	1.708217e-01
2.660000e+01	1.706270e-01
2.670000e+01	1.707583e-01
2.680000e+01	1.709887e-01
2.690000e+01	1.709812e-01
2.700000e+01	1.710389e-01
2.710000e+01	1.713312e-01
2.720000e+01	1.713047e-01
2.730000e+01	1.709215e-01
2.740000e+01	1.701075e-01
2.750000e+01	1.697955e-01
2.760000e+01	1.700794e-01
2.770000e+01	1.702037e-01
2.780000e+01	1.702765e-01
2.790000e+01	1.703657e-01
2.800000e+01	1.702366e-01
2.810000e+01	1.700349e-01
2.820000e+01	1.697381e-01
2.830000e+01	1.693428e-01
2.840000e+01	1.688184e-01
2.850000e+01	1.688404e-01
2.860000e+01	1.686705e-01
2.870000e+01	1.681593e-01
2.880000e+01	1.682028e-01
2.890000e+01	1.684496e-01
2.900000e+01	1.679784e-01
2.910000e+01	1.687767e-01
2.920000e+01	1.694095e-01
2.930000e+01	1.691700e-01
2.940000e+01	1.688465e-01
2.950000e+01	1.690819e-01
2.960000e+01	1.698603e-01
2.970000e+01	1.701842e-01
2.980000e+01	1.711279e-01
