#header: N=2	 eta=0.350000	TIME_MAX=30	TERM_TIME=20000	TEMP=0.663290
1.000000e-01	2.992495e-03
2.000000e-01	6.437453e-03
3.000000e-01	1.014797e-02
4.000000e-01	1.402925e-02
5.000000e-01	1.806414e-02
6.000000e-01	2.223479e-02
7.000000e-01	2.649063e-02
8.000000e-01	3.080677e-02
9.000000e-01	3.517189e-02
1.000000e+00	3.954846e-02
1.100000e+00	4.393186e-02
1.200000e+00	4.830764e-02
1.300000e+00	5.264908e-02
1.400000e+00	5.693898e-02
1.500000e+00	6.116004e-02
1.600000e+00	6.530566e-02
1.700000e+00	6.939798e-02
1.800000e+00	7.337876e-02
1.900000e+00	7.728390e-02
2.000000e+00	8.108118e-02
2.100000e+00	8.470791e-02
2.200000e+00	8.813574e-02
2.300000e+00	9.144265e-02
2.400000e+00	9.462500e-02
2.500000e+00	9.770619e-02
2.600000e+00	1.006891e-01
2.700000e+00	1.035773e-01
2.800000e+00	1.063388e-01
2.900000e+00	1.089939e-01
3.000000e+00	1.115346e-01
3.100000e+00	1.139774e-01
3.200000e+00	1.162743e-01
3.300000e+00	1.184694e-01
3.400000e+00	1.205469e-01
3.500000e+00	1.226234e-01
3.600000e+00	1.246449e-01
3.700000e+00	1.265317e-01
3.800000e+00	1.283589e-01
3.900000e+00	1.300754e-01
4.000000e+00	1.317224e-01
4.100000e+00	1.332808e-01
4.200000e+00	1.347776e-01
4.300000e+00	1.362056e-01
4.400000e+00	1.376325e-01
4.500000e+00	1.389740e-01
4.600000e+00	1.402096e-01
4.700000e+00	1.413447e-01
4.800000e+00	1.424166e-01
4.900000e+00	1.434112e-01
5.000000e+00	1.444329e-01
5.100000e+00	1.453555e-01
5.200000e+00	1.462873e-01
5.300000e+00	1.471184e-01
5.400000e+00	1.478491e-01
5.500000e+00	1.486138e-01
5.600000e+00	1.493568e-01
5.700000e+00	1.500259e-01
5.800000e+00	1.507131e-01
5.900000e+00	1.514135e-01
6.000000e+00	1.520774e-01
6.100000e+00	1.526592e-01
6.200000e+00	1.532312e-01
6.300000e+00	1.538227e-01
6.400000e+00	1.543354e-01
6.500000e+00	1.548437e-01
6.600000e+00	1.552727e-01
6.700000e+00	1.556774e-01
6.800000e+00	1.560495e-01
6.900000e+00	1.564258e-01
7.000000e+00	1.567385e-01
7.100000e+00	1.569952e-01
7.200000e+00	1.572830e-01
7.300000e+00	1.576122e-01
7.400000e+00	1.579656e-01
7.500000e+00	1.583882e-01
7.600000e+00	1.588096e-01
7.700000e+00	1.591828e-01
7.800000e+00	1.595956e-01
7.900000e+00	1.600307e-01
8.000000e+00	1.604833e-01
8.100000e+00	1.609685e-01
8.200000e+00	1.615003e-01
8.300000e+00	1.620331e-01
8.400000e+00	1.624230e-01
8.500000e+00	1.628126e-01
8.600000e+00	1.632288e-01
8.700000e+00	1.636230e-01
8.800000e+00	1.640637e-01
8.900000e+00	1.644852e-01
9.000000e+00	1.649466e-01
9.100000e+00	1.654301e-01
9.200000e+00	1.658372e-01
9.300000e+00	1.662280e-01
9.400000e+00	1.664401e-01
9.500000e+00	1.666101e-01
9.600000e+00	1.667372e-01
9.700000e+00	1.667950e-01
9.800000e+00	1.667881e-01
9.900000e+00	1.667712e-01
1.000000e+01	1.667415e-01
1.010000e+01	1.668041e-01
1.020000e+01	1.668889e-01
1.030000e+01	1.669283e-01
1.040000e+01	1.670417e-01
1.050000e+01	1.671339e-01
1.060000e+01	1.672255e-01
1.070000e+01	1.672537e-01
1.080000e+01	1.673084e-01
1.090000e+01	1.673376e-01
1.100000e+01	1.672841e-01
1.110000e+01	1.673001e-01
1.120000e+01	1.673611e-01
1.130000e+01	1.674668e-01
1.140000e+01	1.675047e-01
1.150000e+01	1.674896e-01
1.160000e+01	1.675404e-01
1.170000e+01	1.677190e-01
1.180000e+01	1.677340e-01
1.190000e+01	1.677943e-01
1.200000e+01	1.677474e-01
1.210000e+01	1.676287e-01
1.220000e+01	1.675120e-01
1.230000e+01	1.674283e-01
1.240000e+01	1.672733e-01
1.250000e+01	1.670833e-01
1.260000e+01	1.669609e-01
1.270000e+01	1.667451e-01
1.280000e+01	1.665349e-01
1.290000e+01	1.663333e-01
1.300000e+01	1.662099e-01
1.310000e+01	1.660288e-01
1.320000e+01	1.658666e-01
1.330000e+01	1.656371e-01
1.340000e+01	1.654083e-01
1.350000e+01	1.651819e-01
1.360000e+01	1.649032e-01
1.370000e+01	1.645042e-01
1.380000e+01	1.642433e-01
1.390000e+01	1.638892e-01
1.400000e+01	1.635842e-01
1.410000e+01	1.634104e-01
1.420000e+01	1.632932e-01
1.430000e+01	1.630964e-01
1.440000e+01	1.629513e-01
1.450000e+01	1.629250e-01
1.460000e+01	1.628751e-01
1.470000e+01	1.627874e-01
1.480000e+01	1.626773e-01
1.490000e+01	1.625839e-01
1.500000e+01	1.625234e-01
1.510000e+01	1.625406e-01
1.520000e+01	1.626139e-01
1.530000e+01	1.627160e-01
1.540000e+01	1.629083e-01
1.550000e+01	1.629761e-01
1.560000e+01	1.631734e-01
1.570000e+01	1.633193e-01
1.580000e+01	1.634089e-01
1.590000e+01	1.634641e-01
1.600000e+01	1.635693e-01
1.610000e+01	1.636187e-01
1.620000e+01	1.636568e-01
1.630000e+01	1.637070e-01
1.640000e+01	1.637639e-01
1.650000e+01	1.637612e-01
1.660000e+01	1.638442e-01
1.670000e+01	1.639116e-01
1.680000e+01	1.639712e-01
1.690000e+01	1.639111e-01
1.700000e+01	1.639670e-01
1.710000e+01	1.640061e-01
1.720000e+01	1.641853e-01
1.730000e+01	1.643383e-01
1.740000e+01	1.645126e-01
1.750000e+01	1.645941e-01
1.760000e+01	1.646394e-01
1.770000e+01	1.647301e-01
1.780000e+01	1.646573e-01
1.790000e+01	1.647114e-01
1.800000e+01	1.646991e-01
1.810000e+01	1.647218e-01
1.820000e+01	1.647965e-01
1.830000e+01	1.649212e-01
1.840000e+01	1.649488e-01
1.850000e+01	1.649466e-01
1.860000e+01	1.650083e-01
1.870000e+01	1.650935e-01
1.880000e+01	1.651028e-01
1.890000e+01	1.652094e-01
1.900000e+01	1.654391e-01
1.910000e+01	1.655521e-01
1.920000e+01	1.656822e-01
1.930000e+01	1.657699e-01
1.940000e+01	1.659617e-01
1.950000e+01	1.661834e-01
1.960000e+01	1.662721e-01
1.970000e+01	1.663350e-01
1.980000e+01	1.662951e-01
1.990000e+01	1.663193e-01
2.000000e+01	1.663623e-01
2.010000e+01	1.662888e-01
2.020000e+01	1.662736e-01
2.030000e+01	1.661719e-01
2.040000e+01	1.659655e-01
2.050000e+01	1.657639e-01
2.060000e+01	1.657412e-01
2.070000e+01	1.656550e-01
2.080000e+01	1.654904e-01
2.090000e+01	1.652986e-01
2.100000e+01	1.651440e-01
2.110000e+01	1.649931e-01
2.120000e+01	1.648089e-01
2.130000e+01	1.645277e-01
2.140000e+01	1.642565e-01
2.150000e+01	1.639192e-01
2.160000e+01	1.635717e-01
2.170000e+01	1.633640e-01
2.180000e+01	1.632868e-01
2.190000e+01	1.631690e-01
2.200000e+01	1.629921e-01
2.210000e+01	1.626687e-01
2.220000e+01	1.623994e-01
2.230000e+01	1.620668e-01
2.240000e+01	1.619928e-01
2.250000e+01	1.618462e-01
2.260000e+01	1.616964e-01
2.270000e+01	1.615426e-01
2.280000e+01	1.616581e-01
2.290000e+01	1.618344e-01
2.300000e+01	1.619629e-01
2.310000e+01	1.621606e-01
2.320000e+01	1.624011e-01
2.330000e+01	1.627254e-01
2.340000e+01	1.630468e-01
2.350000e+01	1.635418e-01
2.360000e+01	1.639695e-01
2.370000e+01	1.642277e-01
2.380000e+01	1.643298e-01
2.390000e+01	1.644006e-01
2.400000e+01	1.643681e-01
2.410000e+01	1.643988e-01
2.420000e+01	1.643551e-01
2.430000e+01	1.641397e-01
2.440000e+01	1.639560e-01
2.450000e+01	1.637195e-01
2.460000e+01	1.635310e-01
2.470000e+01	1.634184e-01
2.480000e+01	1.632054e-01
2.490000e+01	1.632990e-01
2.500000e+01	1.633453e-01
2.510000e+01	1.633991e-01
2.520000e+01	1.634176e-01
2.530000e+01	1.634491e-01
2.540000e+01	1.637818e-01
2.550000e+01	1.639358e-01
2.560000e+01	1.641426e-01
2.570000e+01	1.642779e-01
2.580000e+01	1.645119e-01
2.590000e+01	1.648975e-01
2.600000e+01	1.652851e-01
2.610000e+01	1.655159e-01
2.620000e+01	1.655952e-01
2.630000e+01	1.655067e-01
2.640000e+01	1.654040e-01
2.650000e+01	1.651613e-01
2.660000e+01	1.648275e-01
2.670000e+01	1.648636e-01
2.680000e+01	1.649078e-01
2.690000e+01	1.650246e-01
2.700000e+01	1.652993e-01
2.710000e+01	1.656688e-01
2.720000e+01	1.661918e-01
2.730000e+01	1.665155e-01
2.740000e+01	1.668162e-01
2.750000e+01	1.669963e-01
2.760000e+01	1.676309e-01
2.770000e+01	1.680444e-01
2.780000e+01	1.685626e-01
2.790000e+01	1.692238e-01
2.800000e+01	1.696847e-01
2.810000e+01	1.698609e-01
2.820000e+01	1.692841e-01
2.830000e+01	1.684829e-01
2.840000e+01	1.680025e-01
2.850000e+01	1.676763e-01
2.860000e+01	1.670476e-01
2.870000e+01	1.664768e-01
2.880000e+01	1.665951e-01
2.890000e+01	1.661014e-01
2.900000e+01	1.655489e-01
2.910000e+01	1.644967e-01
2.920000e+01	1.637203e-01
2.930000e+01	1.635248e-01
2.940000e+01	1.641487e-01
2.950000e+01	1.641140e-01
2.960000e+01	1.639797e-01
2.970000e+01	1.637937e-01
2.980000e+01	1.633923e-01
