#header: N=2	 eta=0.380000	TIME_MAX=30	TERM_TIME=20000	TEMP=0.688480
1.000000e-01	2.834340e-03
2.000000e-01	5.980396e-03
3.000000e-01	9.376584e-03
4.000000e-01	1.293760e-02
5.000000e-01	1.660703e-02
6.000000e-01	2.035225e-02
7.000000e-01	2.417853e-02
8.000000e-01	2.805772e-02
9.000000e-01	3.199157e-02
1.000000e+00	3.593133e-02
1.100000e+00	3.986720e-02
1.200000e+00	4.379834e-02
1.300000e+00	4.769797e-02
1.400000e+00	5.159128e-02
1.500000e+00	5.542418e-02
1.600000e+00	5.919250e-02
1.700000e+00	6.287844e-02
1.800000e+00	6.649468e-02
1.900000e+00	7.005895e-02
2.000000e+00	7.355247e-02
2.100000e+00	7.698274e-02
2.200000e+00	8.033623e-02
2.300000e+00	8.357124e-02
2.400000e+00	8.670658e-02
2.500000e+00	8.969199e-02
2.600000e+00	9.261239e-02
2.700000e+00	9.541412e-02
2.800000e+00	9.816198e-02
2.900000e+00	1.008655e-01
3.000000e+00	1.034818e-01
3.100000e+00	1.060423e-01
3.200000e+00	1.085330e-01
3.300000e+00	1.109573e-01
3.400000e+00	1.132562e-01
3.500000e+00	1.154792e-01
3.600000e+00	1.176184e-01
3.700000e+00	1.196803e-01
3.800000e+00	1.215673e-01
3.900000e+00	1.233836e-01
4.000000e+00	1.251081e-01
4.100000e+00	1.267899e-01
4.200000e+00	1.283951e-01
4.300000e+00	1.299681e-01
4.400000e+00	1.314645e-01
4.500000e+00	1.328954e-01
4.600000e+00	1.342197e-01
4.700000e+00	1.355293e-01
4.800000e+00	1.367899e-01
4.900000e+00	1.379325e-01
5.000000e+00	1.389986e-01
5.100000e+00	1.400410e-01
5.200000e+00	1.410193e-01
5.300000e+00	1.419072e-01
5.400000e+00	1.427114e-01
5.500000e+00	1.435001e-01
5.600000e+00	1.443647e-01
5.700000e+00	1.451772e-01
5.800000e+00	1.459715e-01
5.900000e+00	1.467022e-01
6.000000e+00	1.474675e-01
6.100000e+00	1.481822e-01
6.200000e+00	1.489067e-01
6.300000e+00	1.496104e-01
6.400000e+00	1.502804e-01
6.500000e+00	1.509507e-01
6.600000e+00	1.516972e-01
6.700000e+00	1.523777e-01
6.800000e+00	1.529672e-01
6.900000e+00	1.535877e-01
7.000000e+00	1.541568e-01
7.100000e+00	1.547297e-01
7.200000e+00	1.553425e-01
7.300000e+00	1.559783e-01
7.400000e+00	1.565245e-01
7.500000e+00	1.570706e-01
7.600000e+00	1.575573e-01
7.700000e+00	1.580471e-01
7.800000e+00	1.584809e-01
7.900000e+00	1.589282e-01
8.000000e+00	1.593391e-01
8.100000e+00	1.597402e-01
8.200000e+00	1.601287e-01
8.300000e+00	1.605326e-01
8.400000e+00	1.609285e-01
8.500000e+00	1.612877e-01
8.600000e+00	1.617347e-01
8.700000e+00	1.621893e-01
8.800000e+00	1.626640e-01
8.900000e+00	1.630557e-01
9.000000e+00	1.634700e-01
9.100000e+00	1.638996e-01
9.200000e+00	1.642461e-01
9.300000e+00	1.646448e-01
9.400000e+00	1.649937e-01
9.500000e+00	1.652300e-01
9.600000e+00	1.654492e-01
9.700000e+00	1.657043e-01
9.800000e+00	1.659861e-01
9.900000e+00	1.661911e-01
1.000000e+01	1.663763e-01
1.010000e+01	1.665453e-01
1.020000e+01	1.667247e-01
1.030000e+01	1.669896e-01
1.040000e+01	1.673113e-01
1.050000e+01	1.675857e-01
1.060000e+01	1.678886e-01
1.070000e+01	1.680809e-01
1.080000e+01	1.681656e-01
1.090000e+01	1.682763e-01
1.100000e+01	1.684793e-01
1.110000e+01	1.686977e-01
1.120000e+01	1.688341e-01
1.130000e+01	1.689950e-01
1.140000e+01	1.691306e-01
1.150000e+01	1.693480e-01
1.160000e+01	1.695593e-01
1.170000e+01	1.697040e-01
1.180000e+01	1.698122e-01
1.190000e+01	1.699486e-01
1.200000e+01	1.700343e-01
1.210000e+01	1.700779e-01
1.220000e+01	1.700948e-01
1.230000e+01	1.701709e-01
1.240000e+01	1.702107e-01
1.250000e+01	1.701858e-01
1.260000e+01	1.702140e-01
1.270000e+01	1.702718e-01
1.280000e+01	1.702983e-01
1.290000e+01	1.702183e-01
1.300000e+01	1.701268e-01
1.310000e+01	1.699909e-01
1.320000e+01	1.698316e-01
1.330000e+01	1.695951e-01
1.340000e+01	1.694057e-01
1.350000e+01	1.691137e-01
1.360000e+01	1.688439e-01
1.370000e+01	1.686113e-01
1.380000e+01	1.685369e-01
1.390000e+01	1.683997e-01
1.400000e+01	1.683077e-01
1.410000e+01	1.683008e-01
1.420000e+01	1.682618e-01
1.430000e+01	1.682133e-01
1.440000e+01	1.681467e-01
1.450000e+01	1.681479e-01
1.460000e+01	1.682756e-01
1.470000e+01	1.683165e-01
1.480000e+01	1.682941e-01
1.490000e+01	1.682747e-01
1.500000e+01	1.682103e-01
1.510000e+01	1.680593e-01
1.520000e+01	1.677824e-01
1.530000e+01	1.675078e-01
1.540000e+01	1.672260e-01
1.550000e+01	1.669718e-01
1.560000e+01	1.667763e-01
1.570000e+01	1.665724e-01
1.580000e+01	1.663801e-01
1.590000e+01	1.662107e-01
1.600000e+01	1.660342e-01
1.610000e+01	1.658318e-01
1.620000e+01	1.657598e-01
1.630000e+01	1.655788e-01
1.640000e+01	1.655342e-01
1.650000e+01	1.654811e-01
1.660000e+01	1.654517e-01
1.670000e+01	1.654382e-01
1.680000e+01	1.655028e-01
1.690000e+01	1.657587e-01
1.700000e+01	1.660828e-01
1.710000e+01	1.663205e-01
1.720000e+01	1.666308e-01
1.730000e+01	1.669817e-01
1.740000e+01	1.673202e-01
1.750000e+01	1.676695e-01
1.760000e+01	1.680003e-01
1.770000e+01	1.682795e-01
1.780000e+01	1.685971e-01
1.790000e+01	1.688571e-01
1.800000e+01	1.689875e-01
1.810000e+01	1.690717e-01
1.820000e+01	1.692357e-01
1.830000e+01	1.694037e-01
1.840000e+01	1.695678e-01
1.850000e+01	1.697579e-01
1.860000e+01	1.698522e-01
1.870000e+01	1.699765e-01
1.880000e+01	1.700032e-01
1.890000e+01	1.699555e-01
1.900000e+01	1.700063e-01
1.910000e+01	1.700537e-01
1.920000e+01	1.700496e-01
1.930000e+01	1.699426e-01
1.940000e+01	1.698591e-01
1.950000e+01	1.696623e-01
1.960000e+01	1.695807e-01
1.970000e+01	1.694318e-01
1.980000e+01	1.692174e-01
1.990000e+01	1.689889e-01
2.000000e+01	1.688219e-01
2.010000e+01	1.685925e-01
2.020000e+01	1.683757e-01
2.030000e+01	1.682771e-01
2.040000e+01	1.682811e-01
2.050000e+01	1.682378e-01
2.060000e+01	1.681118e-01
2.070000e+01	1.680824e-01
2.080000e+01	1.680803e-01
2.090000e+01	1.680189e-01
2.100000e+01	1.681283e-01
2.110000e+01	1.682179e-01
2.120000e+01	1.682204e-01
2.130000e+01	1.682371e-01
2.140000e+01	1.681533e-01
2.150000e+01	1.680068e-01
2.160000e+01	1.677405e-01
2.170000e+01	1.674316e-01
2.180000e+01	1.672158e-01
2.190000e+01	1.670441e-01
2.200000e+01	1.667525e-01
2.210000e+01	1.664878e-01
2.220000e+01	1.662980e-01
2.230000e+01	1.660602e-01
2.240000e+01	1.657614e-01
2.250000e+01	1.656259e-01
2.260000e+01	1.656359e-01
2.270000e+01	1.657146e-01
2.280000e+01	1.655737e-01
2.290000e+01	1.654905e-01
2.300000e+01	1.655251e-01
2.310000e+01	1.656517e-01
2.320000e+01	1.658044e-01
2.330000e+01	1.658757e-01
2.340000e+01	1.658832e-01
2.350000e+01	1.659818e-01
2.360000e+01	1.660136e-01
2.370000e+01	1.658435e-01
2.380000e+01	1.658700e-01
2.390000e+01	1.658667e-01
2.400000e+01	1.657810e-01
2.410000e+01	1.658547e-01
2.420000e+01	1.660227e-01
2.430000e+01	1.661799e-01
2.440000e+01	1.662219e-01
2.450000e+01	1.662729e-01
2.460000e+01	1.663824e-01
2.470000e+01	1.662599e-01
2.480000e+01	1.660859e-01
2.490000e+01	1.657968e-01
2.500000e+01	1.657683e-01
2.510000e+01	1.654929e-01
2.520000e+01	1.650897e-01
2.530000e+01	1.647679e-01
2.540000e+01	1.644771e-01
2.550000e+01	1.643073e-01
2.560000e+01	1.642536e-01
2.570000e+01	1.643059e-01
2.580000e+01	1.645196e-01
2.590000e+01	1.648172e-01
2.600000e+01	1.647409e-01
2.610000e+01	1.645914e-01
2.620000e+01	1.646121e-01
2.630000e+01	1.647736e-01
2.640000e+01	1.650542e-01
2.650000e+01	1.654662e-01
2.660000e+01	1.657605e-01
2.670000e+01	1.659290e-01
2.680000e+01	1.661127e-01
2.690000e+01	1.661622e-01
2.700000e+01	1.662751e-01
2.710000e+01	1.661710e-01
2.720000e+01	1.663355e-01
2.730000e+01	1.667889e-01
2.740000e+01	1.673923e-01
2.750000e+01	1.680152e-01
2.760000e+01	1.687738e-01
2.770000e+01	1.694122e-01
2.780000e+01	1.697285e-01
2.790000e+01	1.699145e-01
2.800000e+01	1.701400e-01
2.810000e+01	1.703729e-01
2.820000e+01	1.707432e-01
2.830000e+01	1.710623e-01
2.840000e+01	1.711795e-01
2.850000e+01	1.714799e-01
2.860000e+01	1.716280e-01
2.870000e+01	1.716063e-01
2.880000e+01	1.717546e-01
2.890000e+01	1.717395e-01
2.900000e+01	1.709566e-01
2.910000e+01	1.700943e-01
2.920000e+01	1.698653e-01
2.930000e+01	1.698497e-01
2.940000e+01	1.696391e-01
2.950000e+01	1.694761e-01
2.960000e+01	1.682287e-01
2.970000e+01	1.664024e-01
2.980000e+01	1.651362e-01
