#header: N=2	 eta=0.390000	TIME_MAX=30	TERM_TIME=20000	TEMP=0.634104
1.000000e-01	2.658374e-03
2.000000e-01	5.533939e-03
3.000000e-01	8.622529e-03
4.000000e-01	1.182277e-02
5.000000e-01	1.514788e-02
6.000000e-01	1.855203e-02
7.000000e-01	2.199129e-02
8.000000e-01	2.545057e-02
9.000000e-01	2.891282e-02
1.000000e+00	3.237382e-02
1.100000e+00	3.586480e-02
1.200000e+00	3.931554e-02
1.300000e+00	4.273774e-02
1.400000e+00	4.613128e-02
1.500000e+00	4.949464e-02
1.600000e+00	5.283153e-02
1.700000e+00	5.609973e-02
1.800000e+00	5.931230e-02
1.900000e+00	6.245527e-02
2.000000e+00	6.556259e-02
2.100000e+00	6.858464e-02
2.200000e+00	7.153773e-02
2.300000e+00	7.440776e-02
2.400000e+00	7.720365e-02
2.500000e+00	7.992224e-02
2.600000e+00	8.258859e-02
2.700000e+00	8.517708e-02
2.800000e+00	8.769630e-02
2.900000e+00	9.017418e-02
3.000000e+00	9.256393e-02
3.100000e+00	9.487779e-02
3.200000e+00	9.711369e-02
3.300000e+00	9.928035e-02
3.400000e+00	1.013716e-01
3.500000e+00	1.033841e-01
3.600000e+00	1.053646e-01
3.700000e+00	1.073298e-01
3.800000e+00	1.092398e-01
3.900000e+00	1.110316e-01
4.000000e+00	1.127951e-01
4.100000e+00	1.145359e-01
4.200000e+00	1.162097e-01
4.300000e+00	1.178174e-01
4.400000e+00	1.193734e-01
4.500000e+00	1.208783e-01
4.600000e+00	1.223349e-01
4.700000e+00	1.237140e-01
4.800000e+00	1.250510e-01
4.900000e+00	1.263130e-01
5.000000e+00	1.275359e-01
5.100000e+00	1.286998e-01
5.200000e+00	1.297723e-01
5.300000e+00	1.308444e-01
5.400000e+00	1.319059e-01
5.500000e+00	1.328997e-01
5.600000e+00	1.338498e-01
5.700000e+00	1.348299e-01
5.800000e+00	1.358319e-01
5.900000e+00	1.367501e-01
6.000000e+00	1.375541e-01
6.100000e+00	1.383019e-01
6.200000e+00	1.389833e-01
6.300000e+00	1.397275e-01
6.400000e+00	1.404876e-01
6.500000e+00	1.412567e-01
6.600000e+00	1.420576e-01
6.700000e+00	1.428413e-01
6.800000e+00	1.436114e-01
6.900000e+00	1.443584e-01
7.000000e+00	1.450659e-01
7.100000e+00	1.458239e-01
7.200000e+00	1.465491e-01
7.300000e+00	1.472384e-01
7.400000e+00	1.479121e-01
7.500000e+00	1.486534e-01
7.600000e+00	1.493307e-01
7.700000e+00	1.500565e-01
7.800000e+00	1.507421e-01
7.900000e+00	1.513697e-01
8.000000e+00	1.519363e-01
8.100000e+00	1.524932e-01
8.200000e+00	1.530616e-01
8.300000e+00	1.535312e-01
8.400000e+00	1.539453e-01
8.500000e+00	1.543287e-01
8.600000e+00	1.547382e-01
8.700000e+00	1.551750e-01
8.800000e+00	1.556642e-01
8.900000e+00	1.560592e-01
9.000000e+00	1.564476e-01
9.100000e+00	1.568244e-01
9.200000e+00	1.571871e-01
9.300000e+00	1.575250e-01
9.400000e+00	1.577774e-01
9.500000e+00	1.580399e-01
9.600000e+00	1.583654e-01
9.700000e+00	1.587398e-01
9.800000e+00	1.590533e-01
9.900000e+00	1.593795e-01
1.000000e+01	1.596274e-01
1.010000e+01	1.599563e-01
1.020000e+01	1.603195e-01
1.030000e+01	1.606979e-01
1.040000e+01	1.610236e-01
1.050000e+01	1.613702e-01
1.060000e+01	1.617318e-01
1.070000e+01	1.620948e-01
1.080000e+01	1.624758e-01
1.090000e+01	1.628321e-01
1.100000e+01	1.631487e-01
1.110000e+01	1.633889e-01
1.120000e+01	1.636122e-01
1.130000e+01	1.638425e-01
1.140000e+01	1.641435e-01
1.150000e+01	1.643876e-01
1.160000e+01	1.645824e-01
1.170000e+01	1.648127e-01
1.180000e+01	1.650224e-01
1.190000e+01	1.652384e-01
1.200000e+01	1.653896e-01
1.210000e+01	1.654924e-01
1.220000e+01	1.656302e-01
1.230000e+01	1.657806e-01
1.240000e+01	1.659105e-01
1.250000e+01	1.660791e-01
1.260000e+01	1.662297e-01
1.270000e+01	1.663887e-01
1.280000e+01	1.665445e-01
1.290000e+01	1.666670e-01
1.300000e+01	1.666617e-01
1.310000e+01	1.666287e-01
1.320000e+01	1.666218e-01
1.330000e+01	1.666106e-01
1.340000e+01	1.665732e-01
1.350000e+01	1.665344e-01
1.360000e+01	1.666170e-01
1.370000e+01	1.666725e-01
1.380000e+01	1.667218e-01
1.390000e+01	1.667780e-01
1.400000e+01	1.667586e-01
1.410000e+01	1.667030e-01
1.420000e+01	1.667814e-01
1.430000e+01	1.667269e-01
1.440000e+01	1.665891e-01
1.450000e+01	1.665016e-01
1.460000e+01	1.664713e-01
1.470000e+01	1.664003e-01
1.480000e+01	1.663176e-01
1.490000e+01	1.662020e-01
1.500000e+01	1.660796e-01
1.510000e+01	1.659103e-01
1.520000e+01	1.657990e-01
1.530000e+01	1.656694e-01
1.540000e+01	1.655245e-01
1.550000e+01	1.654109e-01
1.560000e+01	1.652710e-01
1.570000e+01	1.650825e-01
1.580000e+01	1.648243e-01
1.590000e+01	1.645848e-01
1.600000e+01	1.643979e-01
1.610000e+01	1.642712e-01
1.620000e+01	1.642933e-01
1.630000e+01	1.641856e-01
1.640000e+01	1.640881e-01
1.650000e+01	1.640097e-01
1.660000e+01	1.640396e-01
1.670000e+01	1.641725e-01
1.680000e+01	1.643247e-01
1.690000e+01	1.644054e-01
1.700000e+01	1.645343e-01
1.710000e+01	1.646494e-01
1.720000e+01	1.647325e-01
1.730000e+01	1.647567e-01
1.740000e+01	1.647657e-01
1.750000e+01	1.647756e-01
1.760000e+01	1.649032e-01
1.770000e+01	1.650038e-01
1.780000e+01	1.650396e-01
1.790000e+01	1.650811e-01
1.800000e+01	1.650863e-01
1.810000e+01	1.650829e-01
1.820000e+01	1.650815e-01
1.830000e+01	1.649259e-01
1.840000e+01	1.647790e-01
1.850000e+01	1.647057e-01
1.860000e+01	1.648646e-01
1.870000e+01	1.650615e-01
1.880000e+01	1.652334e-01
1.890000e+01	1.653617e-01
1.900000e+01	1.655466e-01
1.910000e+01	1.657681e-01
1.920000e+01	1.660303e-01
1.930000e+01	1.662441e-01
1.940000e+01	1.664166e-01
1.950000e+01	1.666064e-01
1.960000e+01	1.666579e-01
1.970000e+01	1.667472e-01
1.980000e+01	1.667663e-01
1.990000e+01	1.666987e-01
2.000000e+01	1.667005e-01
2.010000e+01	1.666259e-01
2.020000e+01	1.666388e-01
2.030000e+01	1.667386e-01
2.040000e+01	1.667438e-01
2.050000e+01	1.667858e-01
2.060000e+01	1.668465e-01
2.070000e+01	1.668543e-01
2.080000e+01	1.669866e-01
2.090000e+01	1.670477e-01
2.100000e+01	1.670190e-01
2.110000e+01	1.670783e-01
2.120000e+01	1.672340e-01
2.130000e+01	1.675738e-01
2.140000e+01	1.678463e-01
2.150000e+01	1.680433e-01
2.160000e+01	1.682041e-01
2.170000e+01	1.682898e-01
2.180000e+01	1.683388e-01
2.190000e+01	1.685368e-01
2.200000e+01	1.687175e-01
2.210000e+01	1.690745e-01
2.220000e+01	1.691793e-01
2.230000e+01	1.691610e-01
2.240000e+01	1.690209e-01
2.250000e+01	1.690541e-01
2.260000e+01	1.690904e-01
2.270000e+01	1.690448e-01
2.280000e+01	1.688923e-01
2.290000e+01	1.686795e-01
2.300000e+01	1.683947e-01
2.310000e+01	1.682110e-01
2.320000e+01	1.678950e-01
2.330000e+01	1.672691e-01
2.340000e+01	1.666422e-01
2.350000e+01	1.661277e-01
2.360000e+01	1.658871e-01
2.370000e+01	1.656472e-01
2.380000e+01	1.654403e-01
2.390000e+01	1.651582e-01
2.400000e+01	1.650775e-01
2.410000e+01	1.649507e-01
2.420000e+01	1.646745e-01
2.430000e+01	1.642720e-01
2.440000e+01	1.639402e-01
2.450000e+01	1.638177e-01
2.460000e+01	1.635813e-01
2.470000e+01	1.631373e-01
2.480000e+01	1.630176e-01
2.490000e+01	1.629113e-01
2.500000e+01	1.628613e-01
2.510000e+01	1.629581e-01
2.520000e+01	1.629900e-01
2.530000e+01	1.630709e-01
2.540000e+01	1.630909e-01
2.550000e+01	1.629624e-01
2.560000e+01	1.629511e-01
2.570000e+01	1.629941e-01
2.580000e+01	1.629409e-01
2.590000e+01	1.627574e-01
2.600000e+01	1.628159e-01
2.610000e+01	1.627360e-01
2.620000e+01	1.626479e-01
2.630000e+01	1.625113e-01
2.640000e+01	1.621502e-01
2.650000e+01	1.616235e-01
2.660000e+01	1.610688e-01
2.670000e+01	1.607521e-01
2.680000e+01	1.605057e-01
2.690000e+01	1.603810e-01
2.700000e+01	1.600627e-01
2.710000e+01	1.599803e-01
2.720000e+01	1.602145e-01
2.730000e+01	1.605963e-01
2.740000e+01	1.606837e-01
2.750000e+01	1.605980e-01
2.760000e+01	1.608155e-01
2.770000e+01	1.613356e-01
2.780000e+01	1.617435e-01
2.790000e+01	1.622085e-01
2.800000e+01	1.626309e-01
2.810000e+01	1.633190e-01
2.820000e+01	1.641710e-01
2.830000e+01	1.646297e-01
2.840000e+01	1.653821e-01
2.850000e+01	1.661210e-01
2.860000e+01	1.668852e-01
2.870000e+01	1.674447e-01
2.880000e+01	1.679392e-01
2.890000e+01	1.687577e-01
2.900000e+01	1.691473e-01
2.910000e+01	1.689541e-01
2.920000e+01	1.686198e-01
2.930000e+01	1.683057e-01
2.940000e+01	1.675498e-01
2.950000e+01	1.676096e-01
2.960000e+01	1.670021e-01
2.970000e+01	1.657505e-01
2.980000e+01	1.644128e-01
