#header: N=2	 eta=0.690000	TIME_MAX=30	TERM_TIME=20000	TEMP=0.676213
1.000000e-01	1.017033e-03
2.000000e-01	1.391852e-03
3.000000e-01	1.735555e-03
4.000000e-01	2.074257e-03
5.000000e-01	2.400684e-03
6.000000e-01	2.726447e-03
7.000000e-01	3.047339e-03
8.000000e-01	3.373142e-03
9.000000e-01	3.693835e-03
1.000000e+00	4.026153e-03
1.100000e+00	4.349077e-03
1.200000e+00	4.674994e-03
1.300000e+00	4.995921e-03
1.400000e+00	5.323189e-03
1.500000e+00	5.661115e-03
1.600000e+00	5.984543e-03
1.700000e+00	6.305666e-03
1.800000e+00	6.623627e-03
1.900000e+00	6.939596e-03
2.000000e+00	7.249856e-03
2.100000e+00	7.579497e-03
2.200000e+00	7.913065e-03
2.300000e+00	8.238225e-03
2.400000e+00	8.565661e-03
2.500000e+00	8.895778e-03
2.600000e+00	9.246350e-03
2.700000e+00	9.590582e-03
2.800000e+00	9.930196e-03
2.900000e+00	1.026973e-02
3.000000e+00	1.060721e-02
3.100000e+00	1.094495e-02
3.200000e+00	1.128586e-02
3.300000e+00	1.162257e-02
3.400000e+00	1.196430e-02
3.500000e+00	1.231148e-02
3.600000e+00	1.265214e-02
3.700000e+00	1.298814e-02
3.800000e+00	1.332224e-02
3.900000e+00	1.367601e-02
4.000000e+00	1.403332e-02
4.100000e+00	1.438249e-02
4.200000e+00	1.472932e-02
4.300000e+00	1.506788e-02
4.400000e+00	1.540751e-02
4.500000e+00	1.574842e-02
4.600000e+00	1.609600e-02
4.700000e+00	1.643286e-02
4.800000e+00	1.677579e-02
4.900000e+00	1.711828e-02
5.000000e+00	1.745455e-02
5.100000e+00	1.779010e-02
5.200000e+00	1.813348e-02
5.300000e+00	1.848712e-02
5.400000e+00	1.884636e-02
5.500000e+00	1.920288e-02
5.600000e+00	1.955324e-02
5.700000e+00	1.990680e-02
5.800000e+00	2.025375e-02
5.900000e+00	2.061718e-02
6.000000e+00	2.096999e-02
6.100000e+00	2.132637e-02
6.200000e+00	2.168677e-02
6.300000e+00	2.204210e-02
6.400000e+00	2.240628e-02
6.500000e+00	2.275176e-02
6.600000e+00	2.310033e-02
6.700000e+00	2.345019e-02
6.800000e+00	2.379198e-02
6.900000e+00	2.412902e-02
7.000000e+00	2.446594e-02
7.100000e+00	2.480553e-02
7.200000e+00	2.515925e-02
7.300000e+00	2.550940e-02
7.400000e+00	2.586063e-02
7.500000e+00	2.620233e-02
7.600000e+00	2.655807e-02
7.700000e+00	2.692294e-02
7.800000e+00	2.729669e-02
7.900000e+00	2.766570e-02
8.000000e+00	2.803568e-02
8.100000e+00	2.841322e-02
8.200000e+00	2.879244e-02
8.300000e+00	2.918094e-02
8.400000e+00	2.957002e-02
8.500000e+00	2.996132e-02
8.600000e+00	3.034335e-02
8.700000e+00	3.071978e-02
8.800000e+00	3.108659e-02
8.900000e+00	3.145912e-02
9.000000e+00	3.181197e-02
9.100000e+00	3.218652e-02
9.200000e+00	3.256187e-02
9.300000e+00	3.293554e-02
9.400000e+00	3.331918e-02
9.500000e+00	3.372502e-02
9.600000e+00	3.411970e-02
9.700000e+00	3.450245e-02
9.800000e+00	3.488251e-02
9.900000e+00	3.525438e-02
1.000000e+01	3.564368e-02
1.010000e+01	3.603095e-02
1.020000e+01	3.641340e-02
1.030000e+01	3.679093e-02
1.040000e+01	3.716188e-02
1.050000e+01	3.753618e-02
1.060000e+01	3.790990e-02
1.070000e+01	3.828113e-02
1.080000e+01	3.866942e-02
1.090000e+01	3.904556e-02
1.100000e+01	3.943336e-02
1.110000e+01	3.982089e-02
1.120000e+01	4.021816e-02
1.130000e+01	4.061465e-02
1.140000e+01	4.101361e-02
1.150000e+01	4.141668e-02
1.160000e+01	4.181366e-02
1.170000e+01	4.221924e-02
1.180000e+01	4.263398e-02
1.190000e+01	4.303397e-02
1.200000e+01	4.342552e-02
1.210000e+01	4.382778e-02
1.220000e+01	4.422020e-02
1.230000e+01	4.461920e-02
1.240000e+01	4.501905e-02
1.250000e+01	4.542269e-02
1.260000e+01	4.582195e-02
1.270000e+01	4.620816e-02
1.280000e+01	4.658917e-02
1.290000e+01	4.699225e-02
1.300000e+01	4.739736e-02
1.310000e+01	4.782704e-02
1.320000e+01	4.823232e-02
1.330000e+01	4.865092e-02
1.340000e+01	4.906328e-02
1.350000e+01	4.950532e-02
1.360000e+01	4.994200e-02
1.370000e+01	5.037410e-02
1.380000e+01	5.080025e-02
1.390000e+01	5.122393e-02
1.400000e+01	5.162715e-02
1.410000e+01	5.203789e-02
1.420000e+01	5.245559e-02
1.430000e+01	5.288311e-02
1.440000e+01	5.330368e-02
1.450000e+01	5.370937e-02
1.460000e+01	5.412089e-02
1.470000e+01	5.454256e-02
1.480000e+01	5.496954e-02
1.490000e+01	5.538501e-02
1.500000e+01	5.578570e-02
1.510000e+01	5.617904e-02
1.520000e+01	5.658853e-02
1.530000e+01	5.699742e-02
1.540000e+01	5.741556e-02
1.550000e+01	5.785520e-02
1.560000e+01	5.828271e-02
1.570000e+01	5.867520e-02
1.580000e+01	5.905988e-02
1.590000e+01	5.945113e-02
1.600000e+01	5.984230e-02
1.610000e+01	6.022655e-02
1.620000e+01	6.061954e-02
1.630000e+01	6.100546e-02
1.640000e+01	6.138987e-02
1.650000e+01	6.177015e-02
1.660000e+01	6.216406e-02
1.670000e+01	6.256687e-02
1.680000e+01	6.296329e-02
1.690000e+01	6.337003e-02
1.700000e+01	6.378021e-02
1.710000e+01	6.419794e-02
1.720000e+01	6.462719e-02
1.730000e+01	6.507329e-02
1.740000e+01	6.551355e-02
1.750000e+01	6.596478e-02
1.760000e+01	6.640852e-02
1.770000e+01	6.684548e-02
1.780000e+01	6.730515e-02
1.790000e+01	6.779681e-02
1.800000e+01	6.827605e-02
1.810000e+01	6.871910e-02
1.820000e+01	6.917341e-02
1.830000e+01	6.960920e-02
1.840000e+01	7.006638e-02
1.850000e+01	7.054422e-02
1.860000e+01	7.101586e-02
1.870000e+01	7.150249e-02
1.880000e+01	7.198153e-02
1.890000e+01	7.248477e-02
1.900000e+01	7.298922e-02
1.910000e+01	7.349104e-02
1.920000e+01	7.399014e-02
1.930000e+01	7.451058e-02
1.940000e+01	7.500848e-02
1.950000e+01	7.551735e-02
1.960000e+01	7.605623e-02
1.970000e+01	7.660319e-02
1.980000e+01	7.717363e-02
1.990000e+01	7.774713e-02
2.000000e+01	7.833391e-02
2.010000e+01	7.897823e-02
2.020000e+01	7.958183e-02
2.030000e+01	8.018635e-02
2.040000e+01	8.079476e-02
2.050000e+01	8.135034e-02
2.060000e+01	8.193354e-02
2.070000e+01	8.251954e-02
2.080000e+01	8.309269e-02
2.090000e+01	8.368564e-02
2.100000e+01	8.431699e-02
2.110000e+01	8.492800e-02
2.120000e+01	8.553649e-02
2.130000e+01	8.612568e-02
2.140000e+01	8.669469e-02
2.150000e+01	8.726621e-02
2.160000e+01	8.778748e-02
2.170000e+01	8.830393e-02
2.180000e+01	8.880179e-02
2.190000e+01	8.930621e-02
2.200000e+01	8.980107e-02
2.210000e+01	9.028151e-02
2.220000e+01	9.076386e-02
2.230000e+01	9.124461e-02
2.240000e+01	9.169783e-02
2.250000e+01	9.210804e-02
2.260000e+01	9.249894e-02
2.270000e+01	9.290260e-02
2.280000e+01	9.325367e-02
2.290000e+01	9.361619e-02
2.300000e+01	9.398271e-02
2.310000e+01	9.437440e-02
2.320000e+01	9.476984e-02
2.330000e+01	9.512408e-02
2.340000e+01	9.547937e-02
2.350000e+01	9.581877e-02
2.360000e+01	9.618211e-02
2.370000e+01	9.653745e-02
2.380000e+01	9.686627e-02
2.390000e+01	9.720018e-02
2.400000e+01	9.755614e-02
2.410000e+01	9.791740e-02
2.420000e+01	9.819492e-02
2.430000e+01	9.849881e-02
2.440000e+01	9.876346e-02
2.450000e+01	9.899708e-02
2.460000e+01	9.919841e-02
2.470000e+01	9.938771e-02
2.480000e+01	9.965399e-02
2.490000e+01	9.995951e-02
2.500000e+01	1.001807e-01
2.510000e+01	1.004688e-01
2.520000e+01	1.007827e-01
2.530000e+01	1.011578e-01
2.540000e+01	1.015072e-01
2.550000e+01	1.018410e-01
2.560000e+01	1.021584e-01
2.570000e+01	1.025289e-01
2.580000e+01	1.028529e-01
2.590000e+01	1.032152e-01
2.600000e+01	1.035166e-01
2.610000e+01	1.038227e-01
2.620000e+01	1.041166e-01
2.630000e+01	1.043948e-01
2.640000e+01	1.046040e-01
2.650000e+01	1.047284e-01
2.660000e+01	1.049647e-01
2.670000e+01	1.050913e-01
2.680000e+01	1.053497e-01
2.690000e+01	1.054968e-01
2.700000e+01	1.057173e-01
2.710000e+01	1.059838e-01
2.720000e+01	1.062605e-01
2.730000e+01	1.065629e-01
2.740000e+01	1.068265e-01
2.750000e+01	1.071873e-01
2.760000e+01	1.074747e-01
2.770000e+01	1.078356e-01
2.780000e+01	1.082854e-01
2.790000e+01	1.087148e-01
2.800000e+01	1.092238e-01
2.810000e+01	1.096358e-01
2.820000e+01	1.101196e-01
2.830000e+01	1.106559e-01
2.840000e+01	1.111455e-01
2.850000e+01	1.115995e-01
2.860000e+01	1.119687e-01
2.870000e+01	1.124686e-01
2.880000e+01	1.131360e-01
2.890000e+01	1.138073e-01
2.900000e+01	1.145268e-01
2.910000e+01	1.152526e-01
2.920000e+01	1.162910e-01
2.930000e+01	1.172530e-01
2.940000e+01	1.188057e-01
2.950000e+01	1.203652e-01
2.960000e+01	1.241038e-01
2.970000e+01	1.289559e-01
2.980000e+01	1.379402e-01
