#header: N=2	 eta=0.695000	TIME_MAX=30	TERM_TIME=20000	TEMP=0.642262
1.000000e-01	9.386032e-04
2.000000e-01	1.178965e-03
3.000000e-01	1.381043e-03
4.000000e-01	1.578432e-03
5.000000e-01	1.758559e-03
6.000000e-01	1.963307e-03
7.000000e-01	2.152839e-03
8.000000e-01	2.349228e-03
9.000000e-01	2.544011e-03
1.000000e+00	2.748774e-03
1.100000e+00	2.958644e-03
1.200000e+00	3.153836e-03
1.300000e+00	3.352653e-03
1.400000e+00	3.553217e-03
1.500000e+00	3.743346e-03
1.600000e+00	3.937135e-03
1.700000e+00	4.132776e-03
1.800000e+00	4.329719e-03
1.900000e+00	4.527354e-03
2.000000e+00	4.743525e-03
2.100000e+00	4.950007e-03
2.200000e+00	5.156117e-03
2.300000e+00	5.366536e-03
2.400000e+00	5.573275e-03
2.500000e+00	5.768136e-03
2.600000e+00	5.971346e-03
2.700000e+00	6.171240e-03
2.800000e+00	6.361957e-03
2.900000e+00	6.556869e-03
3.000000e+00	6.755303e-03
3.100000e+00	6.962640e-03
3.200000e+00	7.158979e-03
3.300000e+00	7.360198e-03
3.400000e+00	7.568131e-03
3.500000e+00	7.764305e-03
3.600000e+00	7.962081e-03
3.700000e+00	8.174867e-03
3.800000e+00	8.380511e-03
3.900000e+00	8.582753e-03
4.000000e+00	8.798393e-03
4.100000e+00	8.998381e-03
4.200000e+00	9.206062e-03
4.300000e+00	9.421355e-03
4.400000e+00	9.632196e-03
4.500000e+00	9.853309e-03
4.600000e+00	1.006305e-02
4.700000e+00	1.027186e-02
4.800000e+00	1.047536e-02
4.900000e+00	1.069997e-02
5.000000e+00	1.091629e-02
5.100000e+00	1.113462e-02
5.200000e+00	1.135503e-02
5.300000e+00	1.157470e-02
5.400000e+00	1.180378e-02
5.500000e+00	1.203848e-02
5.600000e+00	1.226794e-02
5.700000e+00	1.250466e-02
5.800000e+00	1.276064e-02
5.900000e+00	1.301231e-02
6.000000e+00	1.325353e-02
6.100000e+00	1.349802e-02
6.200000e+00	1.373565e-02
6.300000e+00	1.397974e-02
6.400000e+00	1.423804e-02
6.500000e+00	1.447589e-02
6.600000e+00	1.472243e-02
6.700000e+00	1.497668e-02
6.800000e+00	1.521543e-02
6.900000e+00	1.546007e-02
7.000000e+00	1.570752e-02
7.100000e+00	1.595305e-02
7.200000e+00	1.620817e-02
7.300000e+00	1.645811e-02
7.400000e+00	1.670485e-02
7.500000e+00	1.695437e-02
7.600000e+00	1.721150e-02
7.700000e+00	1.746790e-02
7.800000e+00	1.772545e-02
7.900000e+00	1.799311e-02
8.000000e+00	1.825976e-02
8.100000e+00	1.852223e-02
8.200000e+00	1.878340e-02
8.300000e+00	1.905291e-02
8.400000e+00	1.932692e-02
8.500000e+00	1.960014e-02
8.600000e+00	1.988099e-02
8.700000e+00	2.014599e-02
8.800000e+00	2.042066e-02
8.900000e+00	2.070147e-02
9.000000e+00	2.098054e-02
9.100000e+00	2.126047e-02
9.200000e+00	2.153797e-02
9.300000e+00	2.182240e-02
9.400000e+00	2.209291e-02
9.500000e+00	2.237934e-02
9.600000e+00	2.266649e-02
9.700000e+00	2.294874e-02
9.800000e+00	2.323335e-02
9.900000e+00	2.352346e-02
1.000000e+01	2.380412e-02
1.010000e+01	2.408885e-02
1.020000e+01	2.437936e-02
1.030000e+01	2.467820e-02
1.040000e+01	2.495566e-02
1.050000e+01	2.524306e-02
1.060000e+01	2.554202e-02
1.070000e+01	2.584265e-02
1.080000e+01	2.613378e-02
1.090000e+01	2.642254e-02
1.100000e+01	2.670982e-02
1.110000e+01	2.699430e-02
1.120000e+01	2.730295e-02
1.130000e+01	2.759150e-02
1.140000e+01	2.787788e-02
1.150000e+01	2.817650e-02
1.160000e+01	2.845528e-02
1.170000e+01	2.874598e-02
1.180000e+01	2.902630e-02
1.190000e+01	2.931800e-02
1.200000e+01	2.960649e-02
1.210000e+01	2.990645e-02
1.220000e+01	3.019933e-02
1.230000e+01	3.049252e-02
1.240000e+01	3.078050e-02
1.250000e+01	3.105615e-02
1.260000e+01	3.134286e-02
1.270000e+01	3.162950e-02
1.280000e+01	3.191586e-02
1.290000e+01	3.219613e-02
1.300000e+01	3.248314e-02
1.310000e+01	3.276989e-02
1.320000e+01	3.305773e-02
1.330000e+01	3.334085e-02
1.340000e+01	3.361108e-02
1.350000e+01	3.390205e-02
1.360000e+01	3.418316e-02
1.370000e+01	3.444339e-02
1.380000e+01	3.469880e-02
1.390000e+01	3.495441e-02
1.400000e+01	3.522752e-02
1.410000e+01	3.548937e-02
1.420000e+01	3.576195e-02
1.430000e+01	3.603763e-02
1.440000e+01	3.631004e-02
1.450000e+01	3.658684e-02
1.460000e+01	3.687620e-02
1.470000e+01	3.714767e-02
1.480000e+01	3.742688e-02
1.490000e+01	3.770640e-02
1.500000e+01	3.797787e-02
1.510000e+01	3.822596e-02
1.520000e+01	3.845581e-02
1.530000e+01	3.869966e-02
1.540000e+01	3.893670e-02
1.550000e+01	3.919675e-02
1.560000e+01	3.945405e-02
1.570000e+01	3.971776e-02
1.580000e+01	3.996968e-02
1.590000e+01	4.023244e-02
1.600000e+01	4.049151e-02
1.610000e+01	4.075649e-02
1.620000e+01	4.101866e-02
1.630000e+01	4.128607e-02
1.640000e+01	4.153419e-02
1.650000e+01	4.178149e-02
1.660000e+01	4.202701e-02
1.670000e+01	4.228588e-02
1.680000e+01	4.252693e-02
1.690000e+01	4.276280e-02
1.700000e+01	4.298749e-02
1.710000e+01	4.321681e-02
1.720000e+01	4.345502e-02
1.730000e+01	4.369583e-02
1.740000e+01	4.391935e-02
1.750000e+01	4.415297e-02
1.760000e+01	4.437216e-02
1.770000e+01	4.460269e-02
1.780000e+01	4.479944e-02
1.790000e+01	4.497933e-02
1.800000e+01	4.518369e-02
1.810000e+01	4.539714e-02
1.820000e+01	4.562925e-02
1.830000e+01	4.584392e-02
1.840000e+01	4.605796e-02
1.850000e+01	4.627527e-02
1.860000e+01	4.648314e-02
1.870000e+01	4.667412e-02
1.880000e+01	4.686131e-02
1.890000e+01	4.702451e-02
1.900000e+01	4.720410e-02
1.910000e+01	4.736846e-02
1.920000e+01	4.748713e-02
1.930000e+01	4.758973e-02
1.940000e+01	4.771335e-02
1.950000e+01	4.788681e-02
1.960000e+01	4.806414e-02
1.970000e+01	4.825899e-02
1.980000e+01	4.843665e-02
1.990000e+01	4.862069e-02
2.000000e+01	4.878273e-02
2.010000e+01	4.897079e-02
2.020000e+01	4.916451e-02
2.030000e+01	4.935657e-02
2.040000e+01	4.956841e-02
2.050000e+01	4.977084e-02
2.060000e+01	4.998107e-02
2.070000e+01	5.016707e-02
2.080000e+01	5.037746e-02
2.090000e+01	5.055897e-02
2.100000e+01	5.075563e-02
2.110000e+01	5.091714e-02
2.120000e+01	5.111757e-02
2.130000e+01	5.131945e-02
2.140000e+01	5.155347e-02
2.150000e+01	5.180185e-02
2.160000e+01	5.204381e-02
2.170000e+01	5.229935e-02
2.180000e+01	5.251805e-02
2.190000e+01	5.273259e-02
2.200000e+01	5.293463e-02
2.210000e+01	5.311077e-02
2.220000e+01	5.327154e-02
2.230000e+01	5.342023e-02
2.240000e+01	5.355855e-02
2.250000e+01	5.371273e-02
2.260000e+01	5.384809e-02
2.270000e+01	5.398828e-02
2.280000e+01	5.413972e-02
2.290000e+01	5.428202e-02
2.300000e+01	5.442447e-02
2.310000e+01	5.458928e-02
2.320000e+01	5.476866e-02
2.330000e+01	5.499093e-02
2.340000e+01	5.521679e-02
2.350000e+01	5.543387e-02
2.360000e+01	5.563621e-02
2.370000e+01	5.584869e-02
2.380000e+01	5.601465e-02
2.390000e+01	5.623563e-02
2.400000e+01	5.646805e-02
2.410000e+01	5.667026e-02
2.420000e+01	5.689679e-02
2.430000e+01	5.705096e-02
2.440000e+01	5.727756e-02
2.450000e+01	5.747391e-02
2.460000e+01	5.770382e-02
2.470000e+01	5.795754e-02
2.480000e+01	5.822056e-02
2.490000e+01	5.848525e-02
2.500000e+01	5.876575e-02
2.510000e+01	5.902197e-02
2.520000e+01	5.926881e-02
2.530000e+01	5.952989e-02
2.540000e+01	5.977933e-02
2.550000e+01	5.998850e-02
2.560000e+01	6.024720e-02
2.570000e+01	6.046151e-02
2.580000e+01	6.068407e-02
2.590000e+01	6.091307e-02
2.600000e+01	6.116799e-02
2.610000e+01	6.142241e-02
2.620000e+01	6.164211e-02
2.630000e+01	6.190691e-02
2.640000e+01	6.211586e-02
2.650000e+01	6.228303e-02
2.660000e+01	6.246811e-02
2.670000e+01	6.256028e-02
2.680000e+01	6.263235e-02
2.690000e+01	6.268323e-02
2.700000e+01	6.281740e-02
2.710000e+01	6.292596e-02
2.720000e+01	6.305053e-02
2.730000e+01	6.318940e-02
2.740000e+01	6.334829e-02
2.750000e+01	6.363544e-02
2.760000e+01	6.385667e-02
2.770000e+01	6.410358e-02
2.780000e+01	6.433008e-02
2.790000e+01	6.466270e-02
2.800000e+01	6.501856e-02
2.810000e+01	6.544630e-02
2.820000e+01	6.579808e-02
2.830000e+01	6.626284e-02
2.840000e+01	6.669302e-02
2.850000e+01	6.722073e-02
2.860000e+01	6.781422e-02
2.870000e+01	6.857828e-02
2.880000e+01	6.924474e-02
2.890000e+01	7.018246e-02
2.900000e+01	7.127907e-02
2.910000e+01	7.258313e-02
2.920000e+01	7.438191e-02
2.930000e+01	7.656629e-02
2.940000e+01	7.916955e-02
2.950000e+01	8.262536e-02
2.960000e+01	8.803592e-02
2.970000e+01	9.691020e-02
2.980000e+01	1.139921e-01
