#header: N=2	 eta=0.691500	TIME_MAX=30	TERM_TIME=20000	TEMP=0.664200
1.000000e-01	9.884364e-04
2.000000e-01	1.302472e-03
3.000000e-01	1.584683e-03
4.000000e-01	1.859577e-03
5.000000e-01	2.128045e-03
6.000000e-01	2.398349e-03
7.000000e-01	2.672480e-03
8.000000e-01	2.939543e-03
9.000000e-01	3.214752e-03
1.000000e+00	3.485759e-03
1.100000e+00	3.757984e-03
1.200000e+00	4.031939e-03
1.300000e+00	4.285565e-03
1.400000e+00	4.557885e-03
1.500000e+00	4.824167e-03
1.600000e+00	5.088346e-03
1.700000e+00	5.365693e-03
1.800000e+00	5.635090e-03
1.900000e+00	5.921240e-03
2.000000e+00	6.198122e-03
2.100000e+00	6.466780e-03
2.200000e+00	6.729539e-03
2.300000e+00	7.010852e-03
2.400000e+00	7.282651e-03
2.500000e+00	7.560829e-03
2.600000e+00	7.833668e-03
2.700000e+00	8.104967e-03
2.800000e+00	8.376029e-03
2.900000e+00	8.651866e-03
3.000000e+00	8.927355e-03
3.100000e+00	9.215969e-03
3.200000e+00	9.501483e-03
3.300000e+00	9.777981e-03
3.400000e+00	1.005587e-02
3.500000e+00	1.033935e-02
3.600000e+00	1.063411e-02
3.700000e+00	1.092503e-02
3.800000e+00	1.121762e-02
3.900000e+00	1.149760e-02
4.000000e+00	1.178243e-02
4.100000e+00	1.207287e-02
4.200000e+00	1.236687e-02
4.300000e+00	1.266000e-02
4.400000e+00	1.294299e-02
4.500000e+00	1.322272e-02
4.600000e+00	1.349991e-02
4.700000e+00	1.376750e-02
4.800000e+00	1.403703e-02
4.900000e+00	1.429960e-02
5.000000e+00	1.455847e-02
5.100000e+00	1.482685e-02
5.200000e+00	1.508004e-02
5.300000e+00	1.532887e-02
5.400000e+00	1.558139e-02
5.500000e+00	1.582094e-02
5.600000e+00	1.606596e-02
5.700000e+00	1.632017e-02
5.800000e+00	1.657671e-02
5.900000e+00	1.682189e-02
6.000000e+00	1.706734e-02
6.100000e+00	1.730899e-02
6.200000e+00	1.754528e-02
6.300000e+00	1.777398e-02
6.400000e+00	1.801160e-02
6.500000e+00	1.825642e-02
6.600000e+00	1.849569e-02
6.700000e+00	1.872315e-02
6.800000e+00	1.895860e-02
6.900000e+00	1.917921e-02
7.000000e+00	1.941028e-02
7.100000e+00	1.964289e-02
7.200000e+00	1.987225e-02
7.300000e+00	2.010543e-02
7.400000e+00	2.033353e-02
7.500000e+00	2.056232e-02
7.600000e+00	2.078879e-02
7.700000e+00	2.100362e-02
7.800000e+00	2.122841e-02
7.900000e+00	2.145495e-02
8.000000e+00	2.168031e-02
8.100000e+00	2.190740e-02
8.200000e+00	2.213351e-02
8.300000e+00	2.234707e-02
8.400000e+00	2.258710e-02
8.500000e+00	2.281282e-02
8.600000e+00	2.303725e-02
8.700000e+00	2.326103e-02
8.800000e+00	2.349524e-02
8.900000e+00	2.373559e-02
9.000000e+00	2.399644e-02
9.100000e+00	2.424908e-02
9.200000e+00	2.450020e-02
9.300000e+00	2.474967e-02
9.400000e+00	2.500569e-02
9.500000e+00	2.526720e-02
9.600000e+00	2.552709e-02
9.700000e+00	2.578742e-02
9.800000e+00	2.603526e-02
9.900000e+00	2.628008e-02
1.000000e+01	2.652116e-02
1.010000e+01	2.676871e-02
1.020000e+01	2.701886e-02
1.030000e+01	2.727201e-02
1.040000e+01	2.754023e-02
1.050000e+01	2.779710e-02
1.060000e+01	2.805998e-02
1.070000e+01	2.830600e-02
1.080000e+01	2.855666e-02
1.090000e+01	2.879735e-02
1.100000e+01	2.904701e-02
1.110000e+01	2.929567e-02
1.120000e+01	2.953605e-02
1.130000e+01	2.978245e-02
1.140000e+01	3.001814e-02
1.150000e+01	3.024635e-02
1.160000e+01	3.046485e-02
1.170000e+01	3.069021e-02
1.180000e+01	3.091675e-02
1.190000e+01	3.114085e-02
1.200000e+01	3.137554e-02
1.210000e+01	3.160578e-02
1.220000e+01	3.182498e-02
1.230000e+01	3.206492e-02
1.240000e+01	3.230834e-02
1.250000e+01	3.254601e-02
1.260000e+01	3.277687e-02
1.270000e+01	3.301876e-02
1.280000e+01	3.325191e-02
1.290000e+01	3.348325e-02
1.300000e+01	3.371394e-02
1.310000e+01	3.395725e-02
1.320000e+01	3.419190e-02
1.330000e+01	3.441591e-02
1.340000e+01	3.465018e-02
1.350000e+01	3.488419e-02
1.360000e+01	3.510490e-02
1.370000e+01	3.534188e-02
1.380000e+01	3.557965e-02
1.390000e+01	3.582691e-02
1.400000e+01	3.606972e-02
1.410000e+01	3.633509e-02
1.420000e+01	3.659609e-02
1.430000e+01	3.684160e-02
1.440000e+01	3.711378e-02
1.450000e+01	3.738433e-02
1.460000e+01	3.762881e-02
1.470000e+01	3.789590e-02
1.480000e+01	3.817058e-02
1.490000e+01	3.845339e-02
1.500000e+01	3.870672e-02
1.510000e+01	3.896486e-02
1.520000e+01	3.922763e-02
1.530000e+01	3.948125e-02
1.540000e+01	3.974593e-02
1.550000e+01	4.000998e-02
1.560000e+01	4.027460e-02
1.570000e+01	4.053481e-02
1.580000e+01	4.079390e-02
1.590000e+01	4.103857e-02
1.600000e+01	4.129641e-02
1.610000e+01	4.156826e-02
1.620000e+01	4.182735e-02
1.630000e+01	4.207176e-02
1.640000e+01	4.231156e-02
1.650000e+01	4.257205e-02
1.660000e+01	4.283262e-02
1.670000e+01	4.308919e-02
1.680000e+01	4.333958e-02
1.690000e+01	4.357065e-02
1.700000e+01	4.380345e-02
1.710000e+01	4.403345e-02
1.720000e+01	4.426484e-02
1.730000e+01	4.450409e-02
1.740000e+01	4.473184e-02
1.750000e+01	4.499692e-02
1.760000e+01	4.524873e-02
1.770000e+01	4.550103e-02
1.780000e+01	4.574057e-02
1.790000e+01	4.600453e-02
1.800000e+01	4.627861e-02
1.810000e+01	4.653573e-02
1.820000e+01	4.678571e-02
1.830000e+01	4.702545e-02
1.840000e+01	4.725191e-02
1.850000e+01	4.749738e-02
1.860000e+01	4.770685e-02
1.870000e+01	4.795909e-02
1.880000e+01	4.818839e-02
1.890000e+01	4.842296e-02
1.900000e+01	4.864129e-02
1.910000e+01	4.886779e-02
1.920000e+01	4.908745e-02
1.930000e+01	4.930390e-02
1.940000e+01	4.952160e-02
1.950000e+01	4.978669e-02
1.960000e+01	5.003820e-02
1.970000e+01	5.027336e-02
1.980000e+01	5.050294e-02
1.990000e+01	5.071075e-02
2.000000e+01	5.090662e-02
2.010000e+01	5.115328e-02
2.020000e+01	5.135938e-02
2.030000e+01	5.157104e-02
2.040000e+01	5.181349e-02
2.050000e+01	5.204736e-02
2.060000e+01	5.228393e-02
2.070000e+01	5.250979e-02
2.080000e+01	5.277221e-02
2.090000e+01	5.301489e-02
2.100000e+01	5.330186e-02
2.110000e+01	5.356108e-02
2.120000e+01	5.383037e-02
2.130000e+01	5.404493e-02
2.140000e+01	5.427463e-02
2.150000e+01	5.450687e-02
2.160000e+01	5.472648e-02
2.170000e+01	5.497415e-02
2.180000e+01	5.520551e-02
2.190000e+01	5.544767e-02
2.200000e+01	5.569240e-02
2.210000e+01	5.595311e-02
2.220000e+01	5.619275e-02
2.230000e+01	5.645553e-02
2.240000e+01	5.669980e-02
2.250000e+01	5.694452e-02
2.260000e+01	5.720045e-02
2.270000e+01	5.743547e-02
2.280000e+01	5.771790e-02
2.290000e+01	5.800148e-02
2.300000e+01	5.828640e-02
2.310000e+01	5.852909e-02
2.320000e+01	5.878880e-02
2.330000e+01	5.911982e-02
2.340000e+01	5.939030e-02
2.350000e+01	5.970192e-02
2.360000e+01	6.003050e-02
2.370000e+01	6.033322e-02
2.380000e+01	6.066023e-02
2.390000e+01	6.096148e-02
2.400000e+01	6.126443e-02
2.410000e+01	6.156385e-02
2.420000e+01	6.183604e-02
2.430000e+01	6.207397e-02
2.440000e+01	6.232213e-02
2.450000e+01	6.258746e-02
2.460000e+01	6.286827e-02
2.470000e+01	6.318749e-02
2.480000e+01	6.349048e-02
2.490000e+01	6.379648e-02
2.500000e+01	6.407642e-02
2.510000e+01	6.433457e-02
2.520000e+01	6.458473e-02
2.530000e+01	6.486156e-02
2.540000e+01	6.507686e-02
2.550000e+01	6.536728e-02
2.560000e+01	6.565258e-02
2.570000e+01	6.590795e-02
2.580000e+01	6.620745e-02
2.590000e+01	6.643545e-02
2.600000e+01	6.668882e-02
2.610000e+01	6.697158e-02
2.620000e+01	6.719006e-02
2.630000e+01	6.739666e-02
2.640000e+01	6.765625e-02
2.650000e+01	6.789897e-02
2.660000e+01	6.806996e-02
2.670000e+01	6.826047e-02
2.680000e+01	6.853709e-02
2.690000e+01	6.879639e-02
2.700000e+01	6.912738e-02
2.710000e+01	6.953152e-02
2.720000e+01	6.990570e-02
2.730000e+01	7.022419e-02
2.740000e+01	7.059865e-02
2.750000e+01	7.097954e-02
2.760000e+01	7.124575e-02
2.770000e+01	7.158379e-02
2.780000e+01	7.200555e-02
2.790000e+01	7.232658e-02
2.800000e+01	7.263978e-02
2.810000e+01	7.293873e-02
2.820000e+01	7.333130e-02
2.830000e+01	7.374790e-02
2.840000e+01	7.422381e-02
2.850000e+01	7.476621e-02
2.860000e+01	7.540078e-02
2.870000e+01	7.619265e-02
2.880000e+01	7.715588e-02
2.890000e+01	7.781935e-02
2.900000e+01	7.919389e-02
2.910000e+01	8.058062e-02
2.920000e+01	8.203540e-02
2.930000e+01	8.429225e-02
2.940000e+01	8.684545e-02
2.950000e+01	9.004848e-02
2.960000e+01	9.562539e-02
2.970000e+01	1.040765e-01
2.980000e+01	1.196979e-01
