#header: N=2	 eta=0.694000	TIME_MAX=30	TERM_TIME=20000	TEMP=0.665978
1.000000e-01	9.637308e-04
2.000000e-01	1.244989e-03
3.000000e-01	1.494510e-03
4.000000e-01	1.729672e-03
5.000000e-01	1.959224e-03
6.000000e-01	2.187724e-03
7.000000e-01	2.412942e-03
8.000000e-01	2.630005e-03
9.000000e-01	2.855511e-03
1.000000e+00	3.083934e-03
1.100000e+00	3.317565e-03
1.200000e+00	3.549463e-03
1.300000e+00	3.767338e-03
1.400000e+00	3.998332e-03
1.500000e+00	4.218311e-03
1.600000e+00	4.436964e-03
1.700000e+00	4.664070e-03
1.800000e+00	4.895132e-03
1.900000e+00	5.127752e-03
2.000000e+00	5.362323e-03
2.100000e+00	5.592755e-03
2.200000e+00	5.825050e-03
2.300000e+00	6.051784e-03
2.400000e+00	6.275089e-03
2.500000e+00	6.493296e-03
2.600000e+00	6.705847e-03
2.700000e+00	6.918631e-03
2.800000e+00	7.135971e-03
2.900000e+00	7.360354e-03
3.000000e+00	7.581534e-03
3.100000e+00	7.805454e-03
3.200000e+00	8.022625e-03
3.300000e+00	8.222903e-03
3.400000e+00	8.425865e-03
3.500000e+00	8.621486e-03
3.600000e+00	8.818457e-03
3.700000e+00	9.020046e-03
3.800000e+00	9.224114e-03
3.900000e+00	9.425398e-03
4.000000e+00	9.613820e-03
4.100000e+00	9.803748e-03
4.200000e+00	1.000228e-02
4.300000e+00	1.020181e-02
4.400000e+00	1.039692e-02
4.500000e+00	1.058936e-02
4.600000e+00	1.078844e-02
4.700000e+00	1.099990e-02
4.800000e+00	1.119346e-02
4.900000e+00	1.138788e-02
5.000000e+00	1.157614e-02
5.100000e+00	1.175707e-02
5.200000e+00	1.194584e-02
5.300000e+00	1.213951e-02
5.400000e+00	1.232410e-02
5.500000e+00	1.251697e-02
5.600000e+00	1.272091e-02
5.700000e+00	1.293535e-02
5.800000e+00	1.315344e-02
5.900000e+00	1.336026e-02
6.000000e+00	1.357842e-02
6.100000e+00	1.377982e-02
6.200000e+00	1.399588e-02
6.300000e+00	1.420617e-02
6.400000e+00	1.441421e-02
6.500000e+00	1.461070e-02
6.600000e+00	1.481495e-02
6.700000e+00	1.502136e-02
6.800000e+00	1.521351e-02
6.900000e+00	1.540937e-02
7.000000e+00	1.560069e-02
7.100000e+00	1.578773e-02
7.200000e+00	1.597263e-02
7.300000e+00	1.615614e-02
7.400000e+00	1.635736e-02
7.500000e+00	1.656391e-02
7.600000e+00	1.676292e-02
7.700000e+00	1.696250e-02
7.800000e+00	1.717442e-02
7.900000e+00	1.737909e-02
8.000000e+00	1.758832e-02
8.100000e+00	1.780375e-02
8.200000e+00	1.802492e-02
8.300000e+00	1.822538e-02
8.400000e+00	1.845116e-02
8.500000e+00	1.864860e-02
8.600000e+00	1.885657e-02
8.700000e+00	1.906631e-02
8.800000e+00	1.927156e-02
8.900000e+00	1.946735e-02
9.000000e+00	1.966711e-02
9.100000e+00	1.986871e-02
9.200000e+00	2.006579e-02
9.300000e+00	2.027428e-02
9.400000e+00	2.049606e-02
9.500000e+00	2.070666e-02
9.600000e+00	2.093485e-02
9.700000e+00	2.114594e-02
9.800000e+00	2.136406e-02
9.900000e+00	2.157854e-02
1.000000e+01	2.180185e-02
1.010000e+01	2.202693e-02
1.020000e+01	2.222745e-02
1.030000e+01	2.244932e-02
1.040000e+01	2.265452e-02
1.050000e+01	2.287041e-02
1.060000e+01	2.307548e-02
1.070000e+01	2.327227e-02
1.080000e+01	2.349431e-02
1.090000e+01	2.371504e-02
1.100000e+01	2.393389e-02
1.110000e+01	2.415766e-02
1.120000e+01	2.437993e-02
1.130000e+01	2.459463e-02
1.140000e+01	2.482075e-02
1.150000e+01	2.503086e-02
1.160000e+01	2.526236e-02
1.170000e+01	2.547544e-02
1.180000e+01	2.569672e-02
1.190000e+01	2.591775e-02
1.200000e+01	2.614619e-02
1.210000e+01	2.638045e-02
1.220000e+01	2.660487e-02
1.230000e+01	2.683365e-02
1.240000e+01	2.708243e-02
1.250000e+01	2.731039e-02
1.260000e+01	2.752979e-02
1.270000e+01	2.775056e-02
1.280000e+01	2.797782e-02
1.290000e+01	2.818156e-02
1.300000e+01	2.839391e-02
1.310000e+01	2.860691e-02
1.320000e+01	2.882711e-02
1.330000e+01	2.903898e-02
1.340000e+01	2.926013e-02
1.350000e+01	2.948269e-02
1.360000e+01	2.968556e-02
1.370000e+01	2.988403e-02
1.380000e+01	3.008782e-02
1.390000e+01	3.031237e-02
1.400000e+01	3.052923e-02
1.410000e+01	3.075073e-02
1.420000e+01	3.095829e-02
1.430000e+01	3.117076e-02
1.440000e+01	3.136955e-02
1.450000e+01	3.157144e-02
1.460000e+01	3.176794e-02
1.470000e+01	3.195828e-02
1.480000e+01	3.216788e-02
1.490000e+01	3.238706e-02
1.500000e+01	3.259565e-02
1.510000e+01	3.281398e-02
1.520000e+01	3.301883e-02
1.530000e+01	3.323527e-02
1.540000e+01	3.345404e-02
1.550000e+01	3.367301e-02
1.560000e+01	3.388915e-02
1.570000e+01	3.409525e-02
1.580000e+01	3.429954e-02
1.590000e+01	3.450092e-02
1.600000e+01	3.472575e-02
1.610000e+01	3.493208e-02
1.620000e+01	3.515214e-02
1.630000e+01	3.535891e-02
1.640000e+01	3.557027e-02
1.650000e+01	3.577271e-02
1.660000e+01	3.599722e-02
1.670000e+01	3.622539e-02
1.680000e+01	3.646254e-02
1.690000e+01	3.669346e-02
1.700000e+01	3.693505e-02
1.710000e+01	3.716799e-02
1.720000e+01	3.739020e-02
1.730000e+01	3.761963e-02
1.740000e+01	3.784271e-02
1.750000e+01	3.807697e-02
1.760000e+01	3.829386e-02
1.770000e+01	3.851773e-02
1.780000e+01	3.873103e-02
1.790000e+01	3.897911e-02
1.800000e+01	3.921494e-02
1.810000e+01	3.942329e-02
1.820000e+01	3.965085e-02
1.830000e+01	3.986918e-02
1.840000e+01	4.010725e-02
1.850000e+01	4.031658e-02
1.860000e+01	4.051474e-02
1.870000e+01	4.071018e-02
1.880000e+01	4.090860e-02
1.890000e+01	4.111682e-02
1.900000e+01	4.132813e-02
1.910000e+01	4.154063e-02
1.920000e+01	4.172819e-02
1.930000e+01	4.191006e-02
1.940000e+01	4.211074e-02
1.950000e+01	4.228414e-02
1.960000e+01	4.245061e-02
1.970000e+01	4.261687e-02
1.980000e+01	4.276673e-02
1.990000e+01	4.292062e-02
2.000000e+01	4.310927e-02
2.010000e+01	4.326867e-02
2.020000e+01	4.344390e-02
2.030000e+01	4.363711e-02
2.040000e+01	4.382010e-02
2.050000e+01	4.402105e-02
2.060000e+01	4.421502e-02
2.070000e+01	4.441858e-02
2.080000e+01	4.459178e-02
2.090000e+01	4.478413e-02
2.100000e+01	4.498749e-02
2.110000e+01	4.519875e-02
2.120000e+01	4.541147e-02
2.130000e+01	4.560994e-02
2.140000e+01	4.583177e-02
2.150000e+01	4.604006e-02
2.160000e+01	4.626237e-02
2.170000e+01	4.645026e-02
2.180000e+01	4.665963e-02
2.190000e+01	4.684523e-02
2.200000e+01	4.704736e-02
2.210000e+01	4.723494e-02
2.220000e+01	4.745658e-02
2.230000e+01	4.763747e-02
2.240000e+01	4.787631e-02
2.250000e+01	4.810308e-02
2.260000e+01	4.835201e-02
2.270000e+01	4.855972e-02
2.280000e+01	4.880540e-02
2.290000e+01	4.905013e-02
2.300000e+01	4.929077e-02
2.310000e+01	4.955401e-02
2.320000e+01	4.983027e-02
2.330000e+01	5.008784e-02
2.340000e+01	5.038012e-02
2.350000e+01	5.069988e-02
2.360000e+01	5.099428e-02
2.370000e+01	5.129836e-02
2.380000e+01	5.159221e-02
2.390000e+01	5.186010e-02
2.400000e+01	5.217467e-02
2.410000e+01	5.249038e-02
2.420000e+01	5.279994e-02
2.430000e+01	5.304700e-02
2.440000e+01	5.326698e-02
2.450000e+01	5.352482e-02
2.460000e+01	5.380301e-02
2.470000e+01	5.410032e-02
2.480000e+01	5.437097e-02
2.490000e+01	5.462993e-02
2.500000e+01	5.493135e-02
2.510000e+01	5.516751e-02
2.520000e+01	5.540639e-02
2.530000e+01	5.571042e-02
2.540000e+01	5.591606e-02
2.550000e+01	5.619199e-02
2.560000e+01	5.646016e-02
2.570000e+01	5.672351e-02
2.580000e+01	5.700498e-02
2.590000e+01	5.735180e-02
2.600000e+01	5.764794e-02
2.610000e+01	5.799904e-02
2.620000e+01	5.831569e-02
2.630000e+01	5.868427e-02
2.640000e+01	5.900004e-02
2.650000e+01	5.938265e-02
2.660000e+01	5.969643e-02
2.670000e+01	6.002759e-02
2.680000e+01	6.031261e-02
2.690000e+01	6.066297e-02
2.700000e+01	6.093119e-02
2.710000e+01	6.117601e-02
2.720000e+01	6.156948e-02
2.730000e+01	6.184100e-02
2.740000e+01	6.205644e-02
2.750000e+01	6.232170e-02
2.760000e+01	6.265281e-02
2.770000e+01	6.297709e-02
2.780000e+01	6.320438e-02
2.790000e+01	6.362050e-02
2.800000e+01	6.380588e-02
2.810000e+01	6.397459e-02
2.820000e+01	6.435216e-02
2.830000e+01	6.478840e-02
2.840000e+01	6.516230e-02
2.850000e+01	6.550939e-02
2.860000e+01	6.594357e-02
2.870000e+01	6.670732e-02
2.880000e+01	6.721088e-02
2.890000e+01	6.798679e-02
2.900000e+01	6.881546e-02
2.910000e+01	6.987613e-02
2.920000e+01	7.145836e-02
2.930000e+01	7.343623e-02
2.940000e+01	7.598399e-02
2.950000e+01	7.985425e-02
2.960000e+01	8.543153e-02
2.970000e+01	9.408564e-02
2.980000e+01	1.124471e-01
