#header: N=2	 eta=0.692500	TIME_MAX=30	TERM_TIME=20000	TEMP=0.638325
1.000000e-01	9.664592e-04
2.000000e-01	1.258636e-03
3.000000e-01	1.505943e-03
4.000000e-01	1.735900e-03
5.000000e-01	1.963985e-03
6.000000e-01	2.197176e-03
7.000000e-01	2.428991e-03
8.000000e-01	2.651906e-03
9.000000e-01	2.876772e-03
1.000000e+00	3.100902e-03
1.100000e+00	3.320804e-03
1.200000e+00	3.551986e-03
1.300000e+00	3.785302e-03
1.400000e+00	4.018010e-03
1.500000e+00	4.243667e-03
1.600000e+00	4.468712e-03
1.700000e+00	4.699259e-03
1.800000e+00	4.929695e-03
1.900000e+00	5.171361e-03
2.000000e+00	5.407367e-03
2.100000e+00	5.642032e-03
2.200000e+00	5.879457e-03
2.300000e+00	6.118177e-03
2.400000e+00	6.363829e-03
2.500000e+00	6.605385e-03
2.600000e+00	6.842946e-03
2.700000e+00	7.080499e-03
2.800000e+00	7.308013e-03
2.900000e+00	7.545610e-03
3.000000e+00	7.776843e-03
3.100000e+00	8.021039e-03
3.200000e+00	8.249261e-03
3.300000e+00	8.478485e-03
3.400000e+00	8.714345e-03
3.500000e+00	8.952302e-03
3.600000e+00	9.192587e-03
3.700000e+00	9.421862e-03
3.800000e+00	9.652487e-03
3.900000e+00	9.879144e-03
4.000000e+00	1.011530e-02
4.100000e+00	1.034501e-02
4.200000e+00	1.058840e-02
4.300000e+00	1.082346e-02
4.400000e+00	1.105798e-02
4.500000e+00	1.129502e-02
4.600000e+00	1.152431e-02
4.700000e+00	1.174878e-02
4.800000e+00	1.198324e-02
4.900000e+00	1.221746e-02
5.000000e+00	1.244769e-02
5.100000e+00	1.269061e-02
5.200000e+00	1.293060e-02
5.300000e+00	1.316928e-02
5.400000e+00	1.341554e-02
5.500000e+00	1.366475e-02
5.600000e+00	1.391019e-02
5.700000e+00	1.415222e-02
5.800000e+00	1.438788e-02
5.900000e+00	1.462275e-02
6.000000e+00	1.486617e-02
6.100000e+00	1.509792e-02
6.200000e+00	1.532779e-02
6.300000e+00	1.556111e-02
6.400000e+00	1.579991e-02
6.500000e+00	1.603896e-02
6.600000e+00	1.626732e-02
6.700000e+00	1.651180e-02
6.800000e+00	1.675129e-02
6.900000e+00	1.698641e-02
7.000000e+00	1.722538e-02
7.100000e+00	1.746505e-02
7.200000e+00	1.770826e-02
7.300000e+00	1.794330e-02
7.400000e+00	1.817081e-02
7.500000e+00	1.840373e-02
7.600000e+00	1.863139e-02
7.700000e+00	1.888116e-02
7.800000e+00	1.911461e-02
7.900000e+00	1.935098e-02
8.000000e+00	1.958833e-02
8.100000e+00	1.980471e-02
8.200000e+00	2.001968e-02
8.300000e+00	2.022466e-02
8.400000e+00	2.044705e-02
8.500000e+00	2.065698e-02
8.600000e+00	2.087421e-02
8.700000e+00	2.108907e-02
8.800000e+00	2.131140e-02
8.900000e+00	2.154421e-02
9.000000e+00	2.177213e-02
9.100000e+00	2.200119e-02
9.200000e+00	2.222908e-02
9.300000e+00	2.245061e-02
9.400000e+00	2.267388e-02
9.500000e+00	2.287800e-02
9.600000e+00	2.311315e-02
9.700000e+00	2.333442e-02
9.800000e+00	2.357211e-02
9.900000e+00	2.380770e-02
1.000000e+01	2.405001e-02
1.010000e+01	2.428424e-02
1.020000e+01	2.451551e-02
1.030000e+01	2.475662e-02
1.040000e+01	2.500306e-02
1.050000e+01	2.522985e-02
1.060000e+01	2.548045e-02
1.070000e+01	2.572329e-02
1.080000e+01	2.596001e-02
1.090000e+01	2.620856e-02
1.100000e+01	2.647367e-02
1.110000e+01	2.673128e-02
1.120000e+01	2.698606e-02
1.130000e+01	2.723683e-02
1.140000e+01	2.749158e-02
1.150000e+01	2.773970e-02
1.160000e+01	2.797291e-02
1.170000e+01	2.822241e-02
1.180000e+01	2.846348e-02
1.190000e+01	2.869102e-02
1.200000e+01	2.891540e-02
1.210000e+01	2.914733e-02
1.220000e+01	2.937968e-02
1.230000e+01	2.962829e-02
1.240000e+01	2.985732e-02
1.250000e+01	3.008851e-02
1.260000e+01	3.031578e-02
1.270000e+01	3.056779e-02
1.280000e+01	3.079381e-02
1.290000e+01	3.102010e-02
1.300000e+01	3.126677e-02
1.310000e+01	3.152007e-02
1.320000e+01	3.177064e-02
1.330000e+01	3.200788e-02
1.340000e+01	3.225488e-02
1.350000e+01	3.250572e-02
1.360000e+01	3.276542e-02
1.370000e+01	3.300290e-02
1.380000e+01	3.324509e-02
1.390000e+01	3.347966e-02
1.400000e+01	3.372250e-02
1.410000e+01	3.395188e-02
1.420000e+01	3.420587e-02
1.430000e+01	3.445108e-02
1.440000e+01	3.469684e-02
1.450000e+01	3.493629e-02
1.460000e+01	3.518751e-02
1.470000e+01	3.544843e-02
1.480000e+01	3.569797e-02
1.490000e+01	3.594548e-02
1.500000e+01	3.621458e-02
1.510000e+01	3.647304e-02
1.520000e+01	3.673579e-02
1.530000e+01	3.699903e-02
1.540000e+01	3.726496e-02
1.550000e+01	3.752265e-02
1.560000e+01	3.777725e-02
1.570000e+01	3.803226e-02
1.580000e+01	3.829253e-02
1.590000e+01	3.855810e-02
1.600000e+01	3.884845e-02
1.610000e+01	3.912495e-02
1.620000e+01	3.942442e-02
1.630000e+01	3.969538e-02
1.640000e+01	3.996061e-02
1.650000e+01	4.026338e-02
1.660000e+01	4.054522e-02
1.670000e+01	4.084897e-02
1.680000e+01	4.113801e-02
1.690000e+01	4.141502e-02
1.700000e+01	4.169003e-02
1.710000e+01	4.199841e-02
1.720000e+01	4.227449e-02
1.730000e+01	4.254448e-02
1.740000e+01	4.283488e-02
1.750000e+01	4.313508e-02
1.760000e+01	4.340380e-02
1.770000e+01	4.369598e-02
1.780000e+01	4.395522e-02
1.790000e+01	4.422525e-02
1.800000e+01	4.448637e-02
1.810000e+01	4.474445e-02
1.820000e+01	4.500204e-02
1.830000e+01	4.527139e-02
1.840000e+01	4.552524e-02
1.850000e+01	4.578452e-02
1.860000e+01	4.604710e-02
1.870000e+01	4.632497e-02
1.880000e+01	4.658416e-02
1.890000e+01	4.684108e-02
1.900000e+01	4.707625e-02
1.910000e+01	4.727813e-02
1.920000e+01	4.749889e-02
1.930000e+01	4.770667e-02
1.940000e+01	4.792381e-02
1.950000e+01	4.815295e-02
1.960000e+01	4.835689e-02
1.970000e+01	4.856164e-02
1.980000e+01	4.880643e-02
1.990000e+01	4.902092e-02
2.000000e+01	4.927014e-02
2.010000e+01	4.949885e-02
2.020000e+01	4.973123e-02
2.030000e+01	4.994414e-02
2.040000e+01	5.014845e-02
2.050000e+01	5.037113e-02
2.060000e+01	5.058200e-02
2.070000e+01	5.078908e-02
2.080000e+01	5.099723e-02
2.090000e+01	5.121074e-02
2.100000e+01	5.143497e-02
2.110000e+01	5.166108e-02
2.120000e+01	5.187526e-02
2.130000e+01	5.207177e-02
2.140000e+01	5.227602e-02
2.150000e+01	5.248151e-02
2.160000e+01	5.265977e-02
2.170000e+01	5.281859e-02
2.180000e+01	5.297365e-02
2.190000e+01	5.313772e-02
2.200000e+01	5.330206e-02
2.210000e+01	5.348729e-02
2.220000e+01	5.360589e-02
2.230000e+01	5.376073e-02
2.240000e+01	5.389342e-02
2.250000e+01	5.406548e-02
2.260000e+01	5.422148e-02
2.270000e+01	5.436186e-02
2.280000e+01	5.451863e-02
2.290000e+01	5.466159e-02
2.300000e+01	5.478926e-02
2.310000e+01	5.493506e-02
2.320000e+01	5.510440e-02
2.330000e+01	5.522615e-02
2.340000e+01	5.539417e-02
2.350000e+01	5.556632e-02
2.360000e+01	5.572734e-02
2.370000e+01	5.585976e-02
2.380000e+01	5.603616e-02
2.390000e+01	5.622807e-02
2.400000e+01	5.639855e-02
2.410000e+01	5.654326e-02
2.420000e+01	5.665346e-02
2.430000e+01	5.682623e-02
2.440000e+01	5.703281e-02
2.450000e+01	5.721981e-02
2.460000e+01	5.737828e-02
2.470000e+01	5.752397e-02
2.480000e+01	5.774881e-02
2.490000e+01	5.793299e-02
2.500000e+01	5.814504e-02
2.510000e+01	5.832525e-02
2.520000e+01	5.846251e-02
2.530000e+01	5.866125e-02
2.540000e+01	5.883606e-02
2.550000e+01	5.907650e-02
2.560000e+01	5.929560e-02
2.570000e+01	5.952393e-02
2.580000e+01	5.973829e-02
2.590000e+01	5.996910e-02
2.600000e+01	6.024698e-02
2.610000e+01	6.048864e-02
2.620000e+01	6.073614e-02
2.630000e+01	6.104394e-02
2.640000e+01	6.133852e-02
2.650000e+01	6.165978e-02
2.660000e+01	6.201187e-02
2.670000e+01	6.217828e-02
2.680000e+01	6.240791e-02
2.690000e+01	6.258609e-02
2.700000e+01	6.270001e-02
2.710000e+01	6.291664e-02
2.720000e+01	6.310582e-02
2.730000e+01	6.332141e-02
2.740000e+01	6.351456e-02
2.750000e+01	6.374568e-02
2.760000e+01	6.401868e-02
2.770000e+01	6.424334e-02
2.780000e+01	6.460990e-02
2.790000e+01	6.494451e-02
2.800000e+01	6.538008e-02
2.810000e+01	6.577017e-02
2.820000e+01	6.639623e-02
2.830000e+01	6.692607e-02
2.840000e+01	6.756947e-02
2.850000e+01	6.808996e-02
2.860000e+01	6.870017e-02
2.870000e+01	6.945811e-02
2.880000e+01	7.034433e-02
2.890000e+01	7.126775e-02
2.900000e+01	7.269484e-02
2.910000e+01	7.424668e-02
2.920000e+01	7.607484e-02
2.930000e+01	7.837149e-02
2.940000e+01	8.099596e-02
2.950000e+01	8.478823e-02
2.960000e+01	9.045138e-02
2.970000e+01	9.889734e-02
2.980000e+01	1.162095e-01
