#header: N=2	 eta=0.701500	TIME_MAX=30	TERM_TIME=20000	TEMP=0.673036
1.000000e-01	8.942014e-04
2.000000e-01	1.017666e-03
3.000000e-01	1.083662e-03
4.000000e-01	1.129143e-03
5.000000e-01	1.172016e-03
6.000000e-01	1.227741e-03
7.000000e-01	1.287234e-03
8.000000e-01	1.350615e-03
9.000000e-01	1.405543e-03
1.000000e+00	1.457135e-03
1.100000e+00	1.517338e-03
1.200000e+00	1.562051e-03
1.300000e+00	1.621796e-03
1.400000e+00	1.678696e-03
1.500000e+00	1.736994e-03
1.600000e+00	1.784000e-03
1.700000e+00	1.837382e-03
1.800000e+00	1.902063e-03
1.900000e+00	1.955304e-03
2.000000e+00	2.002262e-03
2.100000e+00	2.055619e-03
2.200000e+00	2.106164e-03
2.300000e+00	2.158563e-03
2.400000e+00	2.212952e-03
2.500000e+00	2.267167e-03
2.600000e+00	2.324397e-03
2.700000e+00	2.381976e-03
2.800000e+00	2.432355e-03
2.900000e+00	2.484042e-03
3.000000e+00	2.546764e-03
3.100000e+00	2.595440e-03
3.200000e+00	2.644068e-03
3.300000e+00	2.699023e-03
3.400000e+00	2.763506e-03
3.500000e+00	2.813130e-03
3.600000e+00	2.872257e-03
3.700000e+00	2.927028e-03
3.800000e+00	2.983316e-03
3.900000e+00	3.038352e-03
4.000000e+00	3.102453e-03
4.100000e+00	3.158980e-03
4.200000e+00	3.210074e-03
4.300000e+00	3.263432e-03
4.400000e+00	3.320323e-03
4.500000e+00	3.363054e-03
4.600000e+00	3.419932e-03
4.700000e+00	3.475628e-03
4.800000e+00	3.526630e-03
4.900000e+00	3.575055e-03
5.000000e+00	3.624005e-03
5.100000e+00	3.676993e-03
5.200000e+00	3.713058e-03
5.300000e+00	3.764232e-03
5.400000e+00	3.814797e-03
5.500000e+00	3.860620e-03
5.600000e+00	3.925038e-03
5.700000e+00	3.974870e-03
5.800000e+00	4.022011e-03
5.900000e+00	4.064634e-03
6.000000e+00	4.116577e-03
6.100000e+00	4.170455e-03
6.200000e+00	4.214424e-03
6.300000e+00	4.265313e-03
6.400000e+00	4.315632e-03
6.500000e+00	4.372830e-03
6.600000e+00	4.419169e-03
6.700000e+00	4.468497e-03
6.800000e+00	4.514185e-03
6.900000e+00	4.560619e-03
7.000000e+00	4.608559e-03
7.100000e+00	4.662926e-03
7.200000e+00	4.721533e-03
7.300000e+00	4.761381e-03
7.400000e+00	4.800288e-03
7.500000e+00	4.841737e-03
7.600000e+00	4.887397e-03
7.700000e+00	4.937708e-03
7.800000e+00	4.981109e-03
7.900000e+00	5.022641e-03
8.000000e+00	5.064797e-03
8.100000e+00	5.105004e-03
8.200000e+00	5.153047e-03
8.300000e+00	5.190312e-03
8.400000e+00	5.237884e-03
8.500000e+00	5.283341e-03
8.600000e+00	5.323915e-03
8.700000e+00	5.359028e-03
8.800000e+00	5.400788e-03
8.900000e+00	5.434332e-03
9.000000e+00	5.488852e-03
9.100000e+00	5.529991e-03
9.200000e+00	5.577980e-03
9.300000e+00	5.613505e-03
9.400000e+00	5.656977e-03
9.500000e+00	5.698486e-03
9.600000e+00	5.729017e-03
9.700000e+00	5.780067e-03
9.800000e+00	5.828003e-03
9.900000e+00	5.872819e-03
1.000000e+01	5.919031e-03
1.010000e+01	5.972623e-03
1.020000e+01	6.022588e-03
1.030000e+01	6.061335e-03
1.040000e+01	6.103606e-03
1.050000e+01	6.147802e-03
1.060000e+01	6.188683e-03
1.070000e+01	6.218848e-03
1.080000e+01	6.283089e-03
1.090000e+01	6.328084e-03
1.100000e+01	6.378835e-03
1.110000e+01	6.433051e-03
1.120000e+01	6.476205e-03
1.130000e+01	6.520059e-03
1.140000e+01	6.555093e-03
1.150000e+01	6.599767e-03
1.160000e+01	6.658772e-03
1.170000e+01	6.701947e-03
1.180000e+01	6.736963e-03
1.190000e+01	6.767390e-03
1.200000e+01	6.822049e-03
1.210000e+01	6.870126e-03
1.220000e+01	6.919032e-03
1.230000e+01	6.958735e-03
1.240000e+01	6.997172e-03
1.250000e+01	7.050386e-03
1.260000e+01	7.089084e-03
1.270000e+01	7.133047e-03
1.280000e+01	7.181127e-03
1.290000e+01	7.225680e-03
1.300000e+01	7.271399e-03
1.310000e+01	7.294331e-03
1.320000e+01	7.349513e-03
1.330000e+01	7.394045e-03
1.340000e+01	7.452255e-03
1.350000e+01	7.497789e-03
1.360000e+01	7.538434e-03
1.370000e+01	7.574332e-03
1.380000e+01	7.628310e-03
1.390000e+01	7.668082e-03
1.400000e+01	7.718332e-03
1.410000e+01	7.752395e-03
1.420000e+01	7.795060e-03
1.430000e+01	7.852255e-03
1.440000e+01	7.909782e-03
1.450000e+01	7.953938e-03
1.460000e+01	8.007591e-03
1.470000e+01	8.060883e-03
1.480000e+01	8.114099e-03
1.490000e+01	8.172585e-03
1.500000e+01	8.215181e-03
1.510000e+01	8.250655e-03
1.520000e+01	8.313440e-03
1.530000e+01	8.349879e-03
1.540000e+01	8.421161e-03
1.550000e+01	8.485172e-03
1.560000e+01	8.536034e-03
1.570000e+01	8.585383e-03
1.580000e+01	8.637116e-03
1.590000e+01	8.691403e-03
1.600000e+01	8.742371e-03
1.610000e+01	8.790990e-03
1.620000e+01	8.850450e-03
1.630000e+01	8.899598e-03
1.640000e+01	8.955544e-03
1.650000e+01	9.009448e-03
1.660000e+01	9.071076e-03
1.670000e+01	9.138744e-03
1.680000e+01	9.196882e-03
1.690000e+01	9.233955e-03
1.700000e+01	9.282181e-03
1.710000e+01	9.334121e-03
1.720000e+01	9.396579e-03
1.730000e+01	9.458168e-03
1.740000e+01	9.514667e-03
1.750000e+01	9.589357e-03
1.760000e+01	9.625474e-03
1.770000e+01	9.680613e-03
1.780000e+01	9.752308e-03
1.790000e+01	9.808541e-03
1.800000e+01	9.880728e-03
1.810000e+01	9.935165e-03
1.820000e+01	9.987964e-03
1.830000e+01	1.003425e-02
1.840000e+01	1.011114e-02
1.850000e+01	1.016500e-02
1.860000e+01	1.022044e-02
1.870000e+01	1.028476e-02
1.880000e+01	1.036791e-02
1.890000e+01	1.042286e-02
1.900000e+01	1.050106e-02
1.910000e+01	1.053874e-02
1.920000e+01	1.060139e-02
1.930000e+01	1.068223e-02
1.940000e+01	1.073922e-02
1.950000e+01	1.080726e-02
1.960000e+01	1.088339e-02
1.970000e+01	1.095833e-02
1.980000e+01	1.102365e-02
1.990000e+01	1.108229e-02
2.000000e+01	1.115296e-02
2.010000e+01	1.122081e-02
2.020000e+01	1.130461e-02
2.030000e+01	1.138512e-02
2.040000e+01	1.146382e-02
2.050000e+01	1.154528e-02
2.060000e+01	1.162343e-02
2.070000e+01	1.168713e-02
2.080000e+01	1.178984e-02
2.090000e+01	1.185618e-02
2.100000e+01	1.195938e-02
2.110000e+01	1.205643e-02
2.120000e+01	1.213615e-02
2.130000e+01	1.219320e-02
2.140000e+01	1.228868e-02
2.150000e+01	1.239079e-02
2.160000e+01	1.248353e-02
2.170000e+01	1.258061e-02
2.180000e+01	1.266293e-02
2.190000e+01	1.274751e-02
2.200000e+01	1.284428e-02
2.210000e+01	1.293612e-02
2.220000e+01	1.303513e-02
2.230000e+01	1.311598e-02
2.240000e+01	1.323805e-02
2.250000e+01	1.331780e-02
2.260000e+01	1.340423e-02
2.270000e+01	1.351047e-02
2.280000e+01	1.360819e-02
2.290000e+01	1.370121e-02
2.300000e+01	1.377801e-02
2.310000e+01	1.387202e-02
2.320000e+01	1.396278e-02
2.330000e+01	1.404159e-02
2.340000e+01	1.417581e-02
2.350000e+01	1.429068e-02
2.360000e+01	1.437358e-02
2.370000e+01	1.443416e-02
2.380000e+01	1.457689e-02
2.390000e+01	1.466849e-02
2.400000e+01	1.480188e-02
2.410000e+01	1.491344e-02
2.420000e+01	1.501576e-02
2.430000e+01	1.512309e-02
2.440000e+01	1.523003e-02
2.450000e+01	1.537050e-02
2.460000e+01	1.546687e-02
2.470000e+01	1.557059e-02
2.480000e+01	1.569186e-02
2.490000e+01	1.583302e-02
2.500000e+01	1.595771e-02
2.510000e+01	1.611636e-02
2.520000e+01	1.625491e-02
2.530000e+01	1.638897e-02
2.540000e+01	1.653926e-02
2.550000e+01	1.669237e-02
2.560000e+01	1.685333e-02
2.570000e+01	1.695321e-02
2.580000e+01	1.701994e-02
2.590000e+01	1.716776e-02
2.600000e+01	1.735523e-02
2.610000e+01	1.748864e-02
2.620000e+01	1.762972e-02
2.630000e+01	1.776875e-02
2.640000e+01	1.790273e-02
2.650000e+01	1.803073e-02
2.660000e+01	1.816245e-02
2.670000e+01	1.834263e-02
2.680000e+01	1.848702e-02
2.690000e+01	1.870890e-02
2.700000e+01	1.886319e-02
2.710000e+01	1.907701e-02
2.720000e+01	1.926124e-02
2.730000e+01	1.952605e-02
2.740000e+01	1.974972e-02
2.750000e+01	1.995974e-02
2.760000e+01	2.023013e-02
2.770000e+01	2.053411e-02
2.780000e+01	2.087371e-02
2.790000e+01	2.124505e-02
2.800000e+01	2.161155e-02
2.810000e+01	2.208640e-02
2.820000e+01	2.251099e-02
2.830000e+01	2.305201e-02
2.840000e+01	2.372780e-02
2.850000e+01	2.433388e-02
2.860000e+01	2.510152e-02
2.870000e+01	2.579835e-02
2.880000e+01	2.689790e-02
2.890000e+01	2.809980e-02
2.900000e+01	2.953153e-02
2.910000e+01	3.133304e-02
2.920000e+01	3.344354e-02
2.930000e+01	3.635033e-02
2.940000e+01	3.985177e-02
2.950000e+01	4.496043e-02
2.960000e+01	5.238160e-02
2.970000e+01	6.486546e-02
2.980000e+01	9.006047e-02
