#header: N=2	 eta=0.696000	TIME_MAX=30	TERM_TIME=20000	TEMP=0.654927
1.000000e-01	9.383603e-04
2.000000e-01	1.190314e-03
3.000000e-01	1.384127e-03
4.000000e-01	1.565991e-03
5.000000e-01	1.748217e-03
6.000000e-01	1.938960e-03
7.000000e-01	2.134981e-03
8.000000e-01	2.323916e-03
9.000000e-01	2.517946e-03
1.000000e+00	2.704282e-03
1.100000e+00	2.887145e-03
1.200000e+00	3.065927e-03
1.300000e+00	3.248374e-03
1.400000e+00	3.440598e-03
1.500000e+00	3.616794e-03
1.600000e+00	3.796252e-03
1.700000e+00	3.983691e-03
1.800000e+00	4.179359e-03
1.900000e+00	4.367846e-03
2.000000e+00	4.557403e-03
2.100000e+00	4.752901e-03
2.200000e+00	4.940603e-03
2.300000e+00	5.125836e-03
2.400000e+00	5.316704e-03
2.500000e+00	5.511018e-03
2.600000e+00	5.714573e-03
2.700000e+00	5.918768e-03
2.800000e+00	6.127063e-03
2.900000e+00	6.331632e-03
3.000000e+00	6.527252e-03
3.100000e+00	6.736229e-03
3.200000e+00	6.954258e-03
3.300000e+00	7.167650e-03
3.400000e+00	7.390411e-03
3.500000e+00	7.590882e-03
3.600000e+00	7.799518e-03
3.700000e+00	8.011893e-03
3.800000e+00	8.230840e-03
3.900000e+00	8.447384e-03
4.000000e+00	8.663249e-03
4.100000e+00	8.874413e-03
4.200000e+00	9.087424e-03
4.300000e+00	9.307019e-03
4.400000e+00	9.514684e-03
4.500000e+00	9.705536e-03
4.600000e+00	9.913678e-03
4.700000e+00	1.011842e-02
4.800000e+00	1.031859e-02
4.900000e+00	1.052592e-02
5.000000e+00	1.073374e-02
5.100000e+00	1.093354e-02
5.200000e+00	1.113485e-02
5.300000e+00	1.134147e-02
5.400000e+00	1.154218e-02
5.500000e+00	1.174235e-02
5.600000e+00	1.195063e-02
5.700000e+00	1.215266e-02
5.800000e+00	1.235023e-02
5.900000e+00	1.254865e-02
6.000000e+00	1.274174e-02
6.100000e+00	1.292861e-02
6.200000e+00	1.311438e-02
6.300000e+00	1.330791e-02
6.400000e+00	1.350432e-02
6.500000e+00	1.369738e-02
6.600000e+00	1.389749e-02
6.700000e+00	1.409833e-02
6.800000e+00	1.428968e-02
6.900000e+00	1.448538e-02
7.000000e+00	1.467783e-02
7.100000e+00	1.486739e-02
7.200000e+00	1.506326e-02
7.300000e+00	1.525836e-02
7.400000e+00	1.544252e-02
7.500000e+00	1.564554e-02
7.600000e+00	1.583949e-02
7.700000e+00	1.602989e-02
7.800000e+00	1.623702e-02
7.900000e+00	1.644051e-02
8.000000e+00	1.663774e-02
8.100000e+00	1.684875e-02
8.200000e+00	1.703704e-02
8.300000e+00	1.723095e-02
8.400000e+00	1.743080e-02
8.500000e+00	1.762042e-02
8.600000e+00	1.781380e-02
8.700000e+00	1.800479e-02
8.800000e+00	1.821584e-02
8.900000e+00	1.843263e-02
9.000000e+00	1.863782e-02
9.100000e+00	1.884958e-02
9.200000e+00	1.905039e-02
9.300000e+00	1.925860e-02
9.400000e+00	1.946864e-02
9.500000e+00	1.968526e-02
9.600000e+00	1.989262e-02
9.700000e+00	2.010685e-02
9.800000e+00	2.030718e-02
9.900000e+00	2.051448e-02
1.000000e+01	2.071156e-02
1.010000e+01	2.090179e-02
1.020000e+01	2.110768e-02
1.030000e+01	2.130862e-02
1.040000e+01	2.150887e-02
1.050000e+01	2.171570e-02
1.060000e+01	2.193036e-02
1.070000e+01	2.213767e-02
1.080000e+01	2.234299e-02
1.090000e+01	2.253818e-02
1.100000e+01	2.272306e-02
1.110000e+01	2.292755e-02
1.120000e+01	2.312413e-02
1.130000e+01	2.332042e-02
1.140000e+01	2.352129e-02
1.150000e+01	2.371936e-02
1.160000e+01	2.390958e-02
1.170000e+01	2.409803e-02
1.180000e+01	2.427209e-02
1.190000e+01	2.446573e-02
1.200000e+01	2.464179e-02
1.210000e+01	2.480227e-02
1.220000e+01	2.497117e-02
1.230000e+01	2.513657e-02
1.240000e+01	2.530899e-02
1.250000e+01	2.547217e-02
1.260000e+01	2.565236e-02
1.270000e+01	2.581026e-02
1.280000e+01	2.597769e-02
1.290000e+01	2.615025e-02
1.300000e+01	2.633021e-02
1.310000e+01	2.649349e-02
1.320000e+01	2.664479e-02
1.330000e+01	2.681692e-02
1.340000e+01	2.699206e-02
1.350000e+01	2.716923e-02
1.360000e+01	2.732692e-02
1.370000e+01	2.747858e-02
1.380000e+01	2.764102e-02
1.390000e+01	2.779919e-02
1.400000e+01	2.794723e-02
1.410000e+01	2.810148e-02
1.420000e+01	2.823853e-02
1.430000e+01	2.839075e-02
1.440000e+01	2.854027e-02
1.450000e+01	2.869812e-02
1.460000e+01	2.885381e-02
1.470000e+01	2.898125e-02
1.480000e+01	2.912924e-02
1.490000e+01	2.929645e-02
1.500000e+01	2.945601e-02
1.510000e+01	2.961283e-02
1.520000e+01	2.975714e-02
1.530000e+01	2.992511e-02
1.540000e+01	3.007039e-02
1.550000e+01	3.022940e-02
1.560000e+01	3.040230e-02
1.570000e+01	3.056720e-02
1.580000e+01	3.076077e-02
1.590000e+01	3.092718e-02
1.600000e+01	3.109839e-02
1.610000e+01	3.126947e-02
1.620000e+01	3.146418e-02
1.630000e+01	3.163741e-02
1.640000e+01	3.181717e-02
1.650000e+01	3.199147e-02
1.660000e+01	3.214888e-02
1.670000e+01	3.229938e-02
1.680000e+01	3.244904e-02
1.690000e+01	3.260374e-02
1.700000e+01	3.278911e-02
1.710000e+01	3.298818e-02
1.720000e+01	3.316243e-02
1.730000e+01	3.331676e-02
1.740000e+01	3.349068e-02
1.750000e+01	3.367415e-02
1.760000e+01	3.383648e-02
1.770000e+01	3.399327e-02
1.780000e+01	3.417964e-02
1.790000e+01	3.434408e-02
1.800000e+01	3.452650e-02
1.810000e+01	3.470515e-02
1.820000e+01	3.487934e-02
1.830000e+01	3.506933e-02
1.840000e+01	3.525261e-02
1.850000e+01	3.542325e-02
1.860000e+01	3.559183e-02
1.870000e+01	3.575115e-02
1.880000e+01	3.589313e-02
1.890000e+01	3.603728e-02
1.900000e+01	3.620678e-02
1.910000e+01	3.639605e-02
1.920000e+01	3.657298e-02
1.930000e+01	3.676033e-02
1.940000e+01	3.693575e-02
1.950000e+01	3.710165e-02
1.960000e+01	3.725189e-02
1.970000e+01	3.741930e-02
1.980000e+01	3.762373e-02
1.990000e+01	3.777426e-02
2.000000e+01	3.791127e-02
2.010000e+01	3.807913e-02
2.020000e+01	3.822267e-02
2.030000e+01	3.839448e-02
2.040000e+01	3.855490e-02
2.050000e+01	3.870903e-02
2.060000e+01	3.887404e-02
2.070000e+01	3.904307e-02
2.080000e+01	3.919904e-02
2.090000e+01	3.937487e-02
2.100000e+01	3.955012e-02
2.110000e+01	3.970514e-02
2.120000e+01	3.986500e-02
2.130000e+01	4.001153e-02
2.140000e+01	4.014610e-02
2.150000e+01	4.031008e-02
2.160000e+01	4.042026e-02
2.170000e+01	4.053762e-02
2.180000e+01	4.067153e-02
2.190000e+01	4.078236e-02
2.200000e+01	4.090735e-02
2.210000e+01	4.102167e-02
2.220000e+01	4.114692e-02
2.230000e+01	4.126185e-02
2.240000e+01	4.140964e-02
2.250000e+01	4.156537e-02
2.260000e+01	4.172040e-02
2.270000e+01	4.191613e-02
2.280000e+01	4.205021e-02
2.290000e+01	4.222420e-02
2.300000e+01	4.239094e-02
2.310000e+01	4.257119e-02
2.320000e+01	4.275506e-02
2.330000e+01	4.297410e-02
2.340000e+01	4.320759e-02
2.350000e+01	4.346798e-02
2.360000e+01	4.370205e-02
2.370000e+01	4.397749e-02
2.380000e+01	4.426681e-02
2.390000e+01	4.458909e-02
2.400000e+01	4.487054e-02
2.410000e+01	4.516729e-02
2.420000e+01	4.549575e-02
2.430000e+01	4.579044e-02
2.440000e+01	4.605834e-02
2.450000e+01	4.630291e-02
2.460000e+01	4.657586e-02
2.470000e+01	4.684297e-02
2.480000e+01	4.704213e-02
2.490000e+01	4.725689e-02
2.500000e+01	4.748512e-02
2.510000e+01	4.772860e-02
2.520000e+01	4.793159e-02
2.530000e+01	4.823461e-02
2.540000e+01	4.848095e-02
2.550000e+01	4.878519e-02
2.560000e+01	4.905886e-02
2.570000e+01	4.936014e-02
2.580000e+01	4.967272e-02
2.590000e+01	4.999134e-02
2.600000e+01	5.031206e-02
2.610000e+01	5.065886e-02
2.620000e+01	5.100692e-02
2.630000e+01	5.127157e-02
2.640000e+01	5.159295e-02
2.650000e+01	5.197713e-02
2.660000e+01	5.230957e-02
2.670000e+01	5.258694e-02
2.680000e+01	5.297810e-02
2.690000e+01	5.339021e-02
2.700000e+01	5.379110e-02
2.710000e+01	5.419837e-02
2.720000e+01	5.461181e-02
2.730000e+01	5.513084e-02
2.740000e+01	5.559254e-02
2.750000e+01	5.611953e-02
2.760000e+01	5.661909e-02
2.770000e+01	5.711432e-02
2.780000e+01	5.758920e-02
2.790000e+01	5.794775e-02
2.800000e+01	5.843270e-02
2.810000e+01	5.898086e-02
2.820000e+01	5.958729e-02
2.830000e+01	6.011745e-02
2.840000e+01	6.081404e-02
2.850000e+01	6.182201e-02
2.860000e+01	6.264646e-02
2.870000e+01	6.379624e-02
2.880000e+01	6.489468e-02
2.890000e+01	6.594714e-02
2.900000e+01	6.769834e-02
2.910000e+01	6.950981e-02
2.920000e+01	7.140873e-02
2.930000e+01	7.344724e-02
2.940000e+01	7.610524e-02
2.950000e+01	8.029509e-02
2.960000e+01	8.558064e-02
2.970000e+01	9.451657e-02
2.980000e+01	1.130699e-01
