#header: N=2	 eta=0.705000	TIME_MAX=30	TERM_TIME=20000	TEMP=0.645717
1.000000e-01	8.781735e-04
2.000000e-01	9.924968e-04
3.000000e-01	1.055416e-03
4.000000e-01	1.111028e-03
5.000000e-01	1.168922e-03
6.000000e-01	1.230880e-03
7.000000e-01	1.290065e-03
8.000000e-01	1.362915e-03
9.000000e-01	1.422141e-03
1.000000e+00	1.487923e-03
1.100000e+00	1.554145e-03
1.200000e+00	1.608805e-03
1.300000e+00	1.662897e-03
1.400000e+00	1.714331e-03
1.500000e+00	1.764431e-03
1.600000e+00	1.824187e-03
1.700000e+00	1.879061e-03
1.800000e+00	1.929109e-03
1.900000e+00	1.992036e-03
2.000000e+00	2.046916e-03
2.100000e+00	2.100597e-03
2.200000e+00	2.154079e-03
2.300000e+00	2.208006e-03
2.400000e+00	2.253966e-03
2.500000e+00	2.311777e-03
2.600000e+00	2.376420e-03
2.700000e+00	2.424466e-03
2.800000e+00	2.477002e-03
2.900000e+00	2.540225e-03
3.000000e+00	2.609121e-03
3.100000e+00	2.670770e-03
3.200000e+00	2.724585e-03
3.300000e+00	2.780702e-03
3.400000e+00	2.839559e-03
3.500000e+00	2.887628e-03
3.600000e+00	2.949459e-03
3.700000e+00	3.008958e-03
3.800000e+00	3.071973e-03
3.900000e+00	3.123900e-03
4.000000e+00	3.177485e-03
4.100000e+00	3.242913e-03
4.200000e+00	3.307091e-03
4.300000e+00	3.368891e-03
4.400000e+00	3.420985e-03
4.500000e+00	3.477434e-03
4.600000e+00	3.539360e-03
4.700000e+00	3.611330e-03
4.800000e+00	3.667880e-03
4.900000e+00	3.732914e-03
5.000000e+00	3.790497e-03
5.100000e+00	3.858211e-03
5.200000e+00	3.923394e-03
5.300000e+00	3.983416e-03
5.400000e+00	4.046795e-03
5.500000e+00	4.107334e-03
5.600000e+00	4.162104e-03
5.700000e+00	4.233149e-03
5.800000e+00	4.301466e-03
5.900000e+00	4.351502e-03
6.000000e+00	4.422558e-03
6.100000e+00	4.490470e-03
6.200000e+00	4.559161e-03
6.300000e+00	4.616436e-03
6.400000e+00	4.667079e-03
6.500000e+00	4.734020e-03
6.600000e+00	4.796431e-03
6.700000e+00	4.849710e-03
6.800000e+00	4.912906e-03
6.900000e+00	4.982167e-03
7.000000e+00	5.049504e-03
7.100000e+00	5.108955e-03
7.200000e+00	5.165239e-03
7.300000e+00	5.218349e-03
7.400000e+00	5.283497e-03
7.500000e+00	5.350431e-03
7.600000e+00	5.418950e-03
7.700000e+00	5.483856e-03
7.800000e+00	5.553535e-03
7.900000e+00	5.609473e-03
8.000000e+00	5.671031e-03
8.100000e+00	5.745928e-03
8.200000e+00	5.812828e-03
8.300000e+00	5.876995e-03
8.400000e+00	5.941272e-03
8.500000e+00	6.008063e-03
8.600000e+00	6.074118e-03
8.700000e+00	6.136268e-03
8.800000e+00	6.205924e-03
8.900000e+00	6.280821e-03
9.000000e+00	6.337724e-03
9.100000e+00	6.403782e-03
9.200000e+00	6.466854e-03
9.300000e+00	6.522714e-03
9.400000e+00	6.602155e-03
9.500000e+00	6.660766e-03
9.600000e+00	6.733461e-03
9.700000e+00	6.808421e-03
9.800000e+00	6.866328e-03
9.900000e+00	6.932077e-03
1.000000e+01	7.004352e-03
1.010000e+01	7.080091e-03
1.020000e+01	7.153423e-03
1.030000e+01	7.209343e-03
1.040000e+01	7.283292e-03
1.050000e+01	7.344860e-03
1.060000e+01	7.419197e-03
1.070000e+01	7.487336e-03
1.080000e+01	7.553021e-03
1.090000e+01	7.631591e-03
1.100000e+01	7.701435e-03
1.110000e+01	7.763043e-03
1.120000e+01	7.832231e-03
1.130000e+01	7.904890e-03
1.140000e+01	7.976033e-03
1.150000e+01	8.039261e-03
1.160000e+01	8.105259e-03
1.170000e+01	8.168747e-03
1.180000e+01	8.242193e-03
1.190000e+01	8.306056e-03
1.200000e+01	8.362651e-03
1.210000e+01	8.438985e-03
1.220000e+01	8.491179e-03
1.230000e+01	8.558108e-03
1.240000e+01	8.628730e-03
1.250000e+01	8.700092e-03
1.260000e+01	8.770234e-03
1.270000e+01	8.842829e-03
1.280000e+01	8.908365e-03
1.290000e+01	8.971056e-03
1.300000e+01	9.052093e-03
1.310000e+01	9.113786e-03
1.320000e+01	9.187896e-03
1.330000e+01	9.253189e-03
1.340000e+01	9.323899e-03
1.350000e+01	9.374299e-03
1.360000e+01	9.446427e-03
1.370000e+01	9.520973e-03
1.380000e+01	9.581369e-03
1.390000e+01	9.653802e-03
1.400000e+01	9.724463e-03
1.410000e+01	9.784720e-03
1.420000e+01	9.843334e-03
1.430000e+01	9.895775e-03
1.440000e+01	9.954109e-03
1.450000e+01	1.003613e-02
1.460000e+01	1.010434e-02
1.470000e+01	1.014509e-02
1.480000e+01	1.022159e-02
1.490000e+01	1.028580e-02
1.500000e+01	1.033678e-02
1.510000e+01	1.041392e-02
1.520000e+01	1.047714e-02
1.530000e+01	1.055881e-02
1.540000e+01	1.062424e-02
1.550000e+01	1.069340e-02
1.560000e+01	1.077463e-02
1.570000e+01	1.081268e-02
1.580000e+01	1.088718e-02
1.590000e+01	1.094402e-02
1.600000e+01	1.100210e-02
1.610000e+01	1.106414e-02
1.620000e+01	1.112040e-02
1.630000e+01	1.117899e-02
1.640000e+01	1.123712e-02
1.650000e+01	1.129987e-02
1.660000e+01	1.137399e-02
1.670000e+01	1.144441e-02
1.680000e+01	1.149237e-02
1.690000e+01	1.156242e-02
1.700000e+01	1.162591e-02
1.710000e+01	1.168809e-02
1.720000e+01	1.174245e-02
1.730000e+01	1.180759e-02
1.740000e+01	1.186382e-02
1.750000e+01	1.191835e-02
1.760000e+01	1.198040e-02
1.770000e+01	1.200711e-02
1.780000e+01	1.205687e-02
1.790000e+01	1.211718e-02
1.800000e+01	1.216276e-02
1.810000e+01	1.221682e-02
1.820000e+01	1.227762e-02
1.830000e+01	1.232751e-02
1.840000e+01	1.238469e-02
1.850000e+01	1.243790e-02
1.860000e+01	1.250179e-02
1.870000e+01	1.254543e-02
1.880000e+01	1.260382e-02
1.890000e+01	1.267130e-02
1.900000e+01	1.274244e-02
1.910000e+01	1.281422e-02
1.920000e+01	1.288078e-02
1.930000e+01	1.294192e-02
1.940000e+01	1.298549e-02
1.950000e+01	1.307040e-02
1.960000e+01	1.314941e-02
1.970000e+01	1.320458e-02
1.980000e+01	1.326247e-02
1.990000e+01	1.331628e-02
2.000000e+01	1.338779e-02
2.010000e+01	1.347094e-02
2.020000e+01	1.353758e-02
2.030000e+01	1.361059e-02
2.040000e+01	1.368085e-02
2.050000e+01	1.373049e-02
2.060000e+01	1.380849e-02
2.070000e+01	1.388548e-02
2.080000e+01	1.396228e-02
2.090000e+01	1.402386e-02
2.100000e+01	1.408097e-02
2.110000e+01	1.417492e-02
2.120000e+01	1.426014e-02
2.130000e+01	1.432287e-02
2.140000e+01	1.439129e-02
2.150000e+01	1.445548e-02
2.160000e+01	1.450899e-02
2.170000e+01	1.457810e-02
2.180000e+01	1.463981e-02
2.190000e+01	1.468100e-02
2.200000e+01	1.474383e-02
2.210000e+01	1.480363e-02
2.220000e+01	1.488785e-02
2.230000e+01	1.494484e-02
2.240000e+01	1.498980e-02
2.250000e+01	1.504337e-02
2.260000e+01	1.508327e-02
2.270000e+01	1.515589e-02
2.280000e+01	1.521685e-02
2.290000e+01	1.528739e-02
2.300000e+01	1.536130e-02
2.310000e+01	1.543584e-02
2.320000e+01	1.550312e-02
2.330000e+01	1.554261e-02
2.340000e+01	1.560661e-02
2.350000e+01	1.568016e-02
2.360000e+01	1.574320e-02
2.370000e+01	1.582149e-02
2.380000e+01	1.589459e-02
2.390000e+01	1.594949e-02
2.400000e+01	1.604500e-02
2.410000e+01	1.614266e-02
2.420000e+01	1.622101e-02
2.430000e+01	1.628898e-02
2.440000e+01	1.638205e-02
2.450000e+01	1.645568e-02
2.460000e+01	1.658056e-02
2.470000e+01	1.666397e-02
2.480000e+01	1.672736e-02
2.490000e+01	1.682191e-02
2.500000e+01	1.690536e-02
2.510000e+01	1.700818e-02
2.520000e+01	1.710679e-02
2.530000e+01	1.725509e-02
2.540000e+01	1.731675e-02
2.550000e+01	1.742197e-02
2.560000e+01	1.752871e-02
2.570000e+01	1.761667e-02
2.580000e+01	1.774881e-02
2.590000e+01	1.782174e-02
2.600000e+01	1.794041e-02
2.610000e+01	1.806285e-02
2.620000e+01	1.813915e-02
2.630000e+01	1.831121e-02
2.640000e+01	1.847135e-02
2.650000e+01	1.861176e-02
2.660000e+01	1.871745e-02
2.670000e+01	1.886784e-02
2.680000e+01	1.901560e-02
2.690000e+01	1.920677e-02
2.700000e+01	1.939593e-02
2.710000e+01	1.965109e-02
2.720000e+01	1.978330e-02
2.730000e+01	2.003848e-02
2.740000e+01	2.021885e-02
2.750000e+01	2.054569e-02
2.760000e+01	2.087001e-02
2.770000e+01	2.116627e-02
2.780000e+01	2.142992e-02
2.790000e+01	2.177719e-02
2.800000e+01	2.216246e-02
2.810000e+01	2.258709e-02
2.820000e+01	2.309565e-02
2.830000e+01	2.355948e-02
2.840000e+01	2.397541e-02
2.850000e+01	2.458417e-02
2.860000e+01	2.542206e-02
2.870000e+01	2.619649e-02
2.880000e+01	2.745047e-02
2.890000e+01	2.856885e-02
2.900000e+01	2.987677e-02
2.910000e+01	3.168720e-02
2.920000e+01	3.375785e-02
2.930000e+01	3.667489e-02
2.940000e+01	4.037323e-02
2.950000e+01	4.507340e-02
2.960000e+01	5.305059e-02
2.970000e+01	6.586188e-02
2.980000e+01	9.074062e-02
