#header: N=2	 eta=0.706500	TIME_MAX=30	TERM_TIME=20000	TEMP=0.640701
1.000000e-01	8.632900e-04
2.000000e-01	9.621615e-04
3.000000e-01	1.008426e-03
4.000000e-01	1.034561e-03
5.000000e-01	1.066450e-03
6.000000e-01	1.110145e-03
7.000000e-01	1.157845e-03
8.000000e-01	1.201348e-03
9.000000e-01	1.243443e-03
1.000000e+00	1.277927e-03
1.100000e+00	1.317914e-03
1.200000e+00	1.358340e-03
1.300000e+00	1.407962e-03
1.400000e+00	1.440285e-03
1.500000e+00	1.470717e-03
1.600000e+00	1.522191e-03
1.700000e+00	1.568672e-03
1.800000e+00	1.607453e-03
1.900000e+00	1.637147e-03
2.000000e+00	1.675262e-03
2.100000e+00	1.724007e-03
2.200000e+00	1.766529e-03
2.300000e+00	1.791865e-03
2.400000e+00	1.826008e-03
2.500000e+00	1.863921e-03
2.600000e+00	1.894623e-03
2.700000e+00	1.928970e-03
2.800000e+00	1.959155e-03
2.900000e+00	1.986219e-03
3.000000e+00	2.033523e-03
3.100000e+00	2.079461e-03
3.200000e+00	2.107377e-03
3.300000e+00	2.142975e-03
3.400000e+00	2.170747e-03
3.500000e+00	2.202275e-03
3.600000e+00	2.247089e-03
3.700000e+00	2.279748e-03
3.800000e+00	2.319567e-03
3.900000e+00	2.357286e-03
4.000000e+00	2.391606e-03
4.100000e+00	2.422019e-03
4.200000e+00	2.458243e-03
4.300000e+00	2.504457e-03
4.400000e+00	2.544893e-03
4.500000e+00	2.577427e-03
4.600000e+00	2.608163e-03
4.700000e+00	2.647866e-03
4.800000e+00	2.695160e-03
4.900000e+00	2.734813e-03
5.000000e+00	2.770937e-03
5.100000e+00	2.813029e-03
5.200000e+00	2.851583e-03
5.300000e+00	2.894418e-03
5.400000e+00	2.933969e-03
5.500000e+00	2.970167e-03
5.600000e+00	3.001622e-03
5.700000e+00	3.046314e-03
5.800000e+00	3.086270e-03
5.900000e+00	3.113491e-03
6.000000e+00	3.151837e-03
6.100000e+00	3.192951e-03
6.200000e+00	3.233972e-03
6.300000e+00	3.274979e-03
6.400000e+00	3.312560e-03
6.500000e+00	3.344179e-03
6.600000e+00	3.385956e-03
6.700000e+00	3.425228e-03
6.800000e+00	3.465585e-03
6.900000e+00	3.500929e-03
7.000000e+00	3.542649e-03
7.100000e+00	3.573860e-03
7.200000e+00	3.631643e-03
7.300000e+00	3.665244e-03
7.400000e+00	3.700181e-03
7.500000e+00	3.748448e-03
7.600000e+00	3.783488e-03
7.700000e+00	3.827746e-03
7.800000e+00	3.870255e-03
7.900000e+00	3.919583e-03
8.000000e+00	3.957032e-03
8.100000e+00	3.999536e-03
8.200000e+00	4.041138e-03
8.300000e+00	4.091024e-03
8.400000e+00	4.123402e-03
8.500000e+00	4.161435e-03
8.600000e+00	4.214404e-03
8.700000e+00	4.251886e-03
8.800000e+00	4.288124e-03
8.900000e+00	4.326279e-03
9.000000e+00	4.366943e-03
9.100000e+00	4.419519e-03
9.200000e+00	4.457274e-03
9.300000e+00	4.494108e-03
9.400000e+00	4.528633e-03
9.500000e+00	4.568927e-03
9.600000e+00	4.621485e-03
9.700000e+00	4.644778e-03
9.800000e+00	4.692395e-03
9.900000e+00	4.721924e-03
1.000000e+01	4.779239e-03
1.010000e+01	4.818604e-03
1.020000e+01	4.850016e-03
1.030000e+01	4.884710e-03
1.040000e+01	4.922827e-03
1.050000e+01	4.968556e-03
1.060000e+01	5.006765e-03
1.070000e+01	5.046056e-03
1.080000e+01	5.096739e-03
1.090000e+01	5.136097e-03
1.100000e+01	5.180122e-03
1.110000e+01	5.222326e-03
1.120000e+01	5.267217e-03
1.130000e+01	5.308173e-03
1.140000e+01	5.351094e-03
1.150000e+01	5.396495e-03
1.160000e+01	5.438067e-03
1.170000e+01	5.464350e-03
1.180000e+01	5.502543e-03
1.190000e+01	5.551558e-03
1.200000e+01	5.598876e-03
1.210000e+01	5.633506e-03
1.220000e+01	5.668296e-03
1.230000e+01	5.713061e-03
1.240000e+01	5.754962e-03
1.250000e+01	5.802935e-03
1.260000e+01	5.851111e-03
1.270000e+01	5.872325e-03
1.280000e+01	5.919477e-03
1.290000e+01	5.957699e-03
1.300000e+01	5.996083e-03
1.310000e+01	6.049749e-03
1.320000e+01	6.095864e-03
1.330000e+01	6.145140e-03
1.340000e+01	6.170304e-03
1.350000e+01	6.219437e-03
1.360000e+01	6.265321e-03
1.370000e+01	6.310795e-03
1.380000e+01	6.357052e-03
1.390000e+01	6.402406e-03
1.400000e+01	6.451245e-03
1.410000e+01	6.489300e-03
1.420000e+01	6.550016e-03
1.430000e+01	6.586594e-03
1.440000e+01	6.630959e-03
1.450000e+01	6.671867e-03
1.460000e+01	6.742104e-03
1.470000e+01	6.790814e-03
1.480000e+01	6.847374e-03
1.490000e+01	6.896320e-03
1.500000e+01	6.959649e-03
1.510000e+01	7.013022e-03
1.520000e+01	7.068662e-03
1.530000e+01	7.120253e-03
1.540000e+01	7.170112e-03
1.550000e+01	7.228030e-03
1.560000e+01	7.272819e-03
1.570000e+01	7.332485e-03
1.580000e+01	7.363855e-03
1.590000e+01	7.422725e-03
1.600000e+01	7.483511e-03
1.610000e+01	7.524148e-03
1.620000e+01	7.579203e-03
1.630000e+01	7.645822e-03
1.640000e+01	7.695301e-03
1.650000e+01	7.747282e-03
1.660000e+01	7.799770e-03
1.670000e+01	7.865858e-03
1.680000e+01	7.912984e-03
1.690000e+01	7.960158e-03
1.700000e+01	8.011698e-03
1.710000e+01	8.056346e-03
1.720000e+01	8.118875e-03
1.730000e+01	8.170400e-03
1.740000e+01	8.214954e-03
1.750000e+01	8.277109e-03
1.760000e+01	8.343388e-03
1.770000e+01	8.389468e-03
1.780000e+01	8.440429e-03
1.790000e+01	8.513615e-03
1.800000e+01	8.564406e-03
1.810000e+01	8.631211e-03
1.820000e+01	8.690160e-03
1.830000e+01	8.748228e-03
1.840000e+01	8.816101e-03
1.850000e+01	8.884512e-03
1.860000e+01	8.937191e-03
1.870000e+01	8.987036e-03
1.880000e+01	9.045034e-03
1.890000e+01	9.119929e-03
1.900000e+01	9.191259e-03
1.910000e+01	9.239190e-03
1.920000e+01	9.301266e-03
1.930000e+01	9.370993e-03
1.940000e+01	9.433642e-03
1.950000e+01	9.497973e-03
1.960000e+01	9.565673e-03
1.970000e+01	9.629493e-03
1.980000e+01	9.682082e-03
1.990000e+01	9.729806e-03
2.000000e+01	9.803950e-03
2.010000e+01	9.882473e-03
2.020000e+01	9.957825e-03
2.030000e+01	1.002317e-02
2.040000e+01	1.006546e-02
2.050000e+01	1.014036e-02
2.060000e+01	1.018770e-02
2.070000e+01	1.025665e-02
2.080000e+01	1.032837e-02
2.090000e+01	1.037760e-02
2.100000e+01	1.042408e-02
2.110000e+01	1.048500e-02
2.120000e+01	1.054298e-02
2.130000e+01	1.062075e-02
2.140000e+01	1.071070e-02
2.150000e+01	1.074933e-02
2.160000e+01	1.079818e-02
2.170000e+01	1.086672e-02
2.180000e+01	1.092361e-02
2.190000e+01	1.100850e-02
2.200000e+01	1.107946e-02
2.210000e+01	1.114493e-02
2.220000e+01	1.119459e-02
2.230000e+01	1.126539e-02
2.240000e+01	1.134615e-02
2.250000e+01	1.141384e-02
2.260000e+01	1.147902e-02
2.270000e+01	1.154980e-02
2.280000e+01	1.160241e-02
2.290000e+01	1.167140e-02
2.300000e+01	1.177368e-02
2.310000e+01	1.181848e-02
2.320000e+01	1.189274e-02
2.330000e+01	1.195035e-02
2.340000e+01	1.203584e-02
2.350000e+01	1.209625e-02
2.360000e+01	1.217617e-02
2.370000e+01	1.225179e-02
2.380000e+01	1.233969e-02
2.390000e+01	1.242700e-02
2.400000e+01	1.247639e-02
2.410000e+01	1.254962e-02
2.420000e+01	1.261094e-02
2.430000e+01	1.270780e-02
2.440000e+01	1.281016e-02
2.450000e+01	1.291578e-02
2.460000e+01	1.300062e-02
2.470000e+01	1.309756e-02
2.480000e+01	1.316507e-02
2.490000e+01	1.327716e-02
2.500000e+01	1.336010e-02
2.510000e+01	1.346690e-02
2.520000e+01	1.361924e-02
2.530000e+01	1.370791e-02
2.540000e+01	1.384781e-02
2.550000e+01	1.397932e-02
2.560000e+01	1.409190e-02
2.570000e+01	1.421098e-02
2.580000e+01	1.434803e-02
2.590000e+01	1.451907e-02
2.600000e+01	1.460781e-02
2.610000e+01	1.481463e-02
2.620000e+01	1.494928e-02
2.630000e+01	1.514042e-02
2.640000e+01	1.525237e-02
2.650000e+01	1.549387e-02
2.660000e+01	1.568164e-02
2.670000e+01	1.589994e-02
2.680000e+01	1.602435e-02
2.690000e+01	1.631367e-02
2.700000e+01	1.654519e-02
2.710000e+01	1.678466e-02
2.720000e+01	1.707512e-02
2.730000e+01	1.728612e-02
2.740000e+01	1.758801e-02
2.750000e+01	1.798381e-02
2.760000e+01	1.838452e-02
2.770000e+01	1.874572e-02
2.780000e+01	1.901222e-02
2.790000e+01	1.947451e-02
2.800000e+01	1.990247e-02
2.810000e+01	2.044449e-02
2.820000e+01	2.095905e-02
2.830000e+01	2.162784e-02
2.840000e+01	2.228244e-02
2.850000e+01	2.292998e-02
2.860000e+01	2.369164e-02
2.870000e+01	2.468113e-02
2.880000e+01	2.567145e-02
2.890000e+01	2.701308e-02
2.900000e+01	2.849873e-02
2.910000e+01	3.020654e-02
2.920000e+01	3.227574e-02
2.930000e+01	3.530479e-02
2.940000e+01	3.909066e-02
2.950000e+01	4.417234e-02
2.960000e+01	5.241477e-02
2.970000e+01	6.427444e-02
2.980000e+01	8.970872e-02
